1457966185.00
64.000000
-0.00
-0.00
-0.00
-0.00
-0.00
-0.00
-0.00
-0.00
-0.00
-0.00
0.00
0.01
0.01
-0.00
-0.03
-0.05
-0.05
0.00
0.13
0.36
0.66
1.01
1.37
1.72
2.06
2.40
2.79
3.24
3.80
4.42
5.06
5.66
6.20
6.68
7.15
7.68
8.31
9.14
10.09
11.04
11.88
12.56
13.14
13.76
14.65
15.96
17.91
20.32
22.90
25.38
27.58
29.57
31.68
34.32
37.81
42.54
48.15
54.10
59.83
64.97
69.58
74.14
79.34
85.71
93.76
103.00
112.62
121.73
129.77
136.75
143.30
150.75
157.77
166.64
177.95
191.79
206.97
220.57
228.25
225.36
208.53
176.87
132.76
80.05
23.07
-34.94
-92.44
-149.16
-205.23
-260.37
-313.74
-363.87
-409.83
-450.91
-486.50
-515.74
-537.23
-549.22
-549.96
-538.37
-514.21
-478.67
-433.88
-382.45
-327.02
-269.84
-212.63
-156.66
-102.96
-52.38
-5.91
35.59
71.45
101.39
125.54
144.37
158.60
168.94
176.04
180.33
182.11
181.61
179.09
174.85
169.26
162.72
155.58
148.12
140.52
132.89
125.26
117.64
110.03
102.44
94.90
87.49
80.34
73.55
67.21
61.31
55.78
50.45
45.18
39.91
34.69
29.75
25.31
21.58
18.52
15.91
13.40
10.63
7.43
3.95
0.59
-2.16
-3.92
-4.72
-4.95
-5.26
-6.27
-8.30
-11.11
-14.07
-16.45
-17.65
-17.63
-16.84
-15.99
-15.85
-16.99
-19.68
-23.83
-28.78
-33.21
-35.11
-32.27
-23.26
-8.33
10.16
28.36
42.33
49.63
50.18
45.97
39.83
34.08
29.67
26.38
23.52
20.71
18.15
16.34
15.55
15.55
15.65
15.09
13.48
11.04
8.34
6.17
5.02
4.93
5.47
5.95
5.77
4.71
2.96
1.08
-0.33
-0.85
-0.47
0.55
1.75
2.71
3.20
3.24
2.98
2.66
2.49
2.61
3.09
3.95
5.22
6.92
8.99
11.24
13.43
15.25
16.46
16.95
16.79
16.17
15.34
14.45
13.49
12.35
10.79
8.63
5.84
2.41
-1.48
-5.48
-9.29
-12.62
-15.33
-17.42
-19.09
-20.58
-22.19
-24.00
-25.73
-26.78
-26.31
-23.68
-18.85
-12.67
-6.69
-2.50
-0.89
-1.34
-2.22
-1.41
2.67
10.33
20.44
30.98
39.89
45.20
46.13
42.58
35.22
25.47
15.44
7.22
2.30
1.03
2.52
5.25
7.45
7.59
4.52
-2.46
-13.54
-27.93
-43.52
-57.92
-68.90
-75.02
-75.70
-71.30
-61.25
-45.69
-25.90
-4.64
14.20
27.40
34.00
35.66
36.09
38.80
44.74
52.10
57.73
59.03
54.97
46.41
35.14
22.73
10.13
-2.23
-14.06
-24.50
-33.32
-40.64
-46.56
-50.89
-53.04
-52.34
-48.55
-42.59
-34.93
-26.61
-18.49
-11.15
-4.88
0.21
4.12
6.96
9.10
11.11
13.34
15.97
18.95
22.28
26.06
30.30
34.68
38.38
40.41
39.97
37.08
32.63
28.15
25.04
23.94
24.46
25.53
26.08
25.44
23.71
21.19
18.31
15.19
11.65
7.37
2.16
-4.13
-11.79
-19.77
-27.79
-35.60
-42.81
-48.82
-53.06
-55.42
-56.64
-57.96
-60.49
-64.73
-70.07
-75.19
-78.81
-80.30
-79.63
-77.13
-72.77
-65.79
-55.37
-41.15
-23.99
-6.02
9.96
21.56
27.43
27.71
24.20
19.09
14.66
12.32
12.26
13.14
14.56
16.29
18.00
19.20
19.36
18.07
15.51
12.48
10.14
9.54
10.98
13.82
16.95
19.06
19.56
18.74
17.58
17.25
18.75
22.46
27.93
34.02
39.10
41.73
41.14
37.72
33.06
29.62
30.25
36.94
50.40
67.70
83.70
92.55
90.45
76.82
53.70
24.90
-5.35
-33.00
-55.12
-70.23
-78.35
-80.59
-78.45
-74.76
-69.77
-63.69
-56.78
-49.42
-41.79
-33.89
-25.64
-17.14
-8.77
-0.82
6.16
11.75
15.67
17.87
18.54
18.17
17.37
16.72
16.79
17.55
18.66
19.54
19.66
18.87
17.36
15.57
13.99
13.03
12.74
12.92
13.28
13.48
13.32
12.74
11.84
10.87
10.13
9.77
9.74
9.80
9.69
9.23
8.39
7.27
6.00
4.60
3.03
1.23
-0.70
-2.43
-3.49
-3.41
-1.96
0.81
4.52
8.62
12.51
15.69
17.83
18.85
18.87
18.23
17.42
16.91
17.14
18.38
20.63
23.64
26.95
30.02
32.42
33.91
34.53
34.50
34.12
33.64
33.10
32.37
31.14
29.02
25.65
20.81
14.49
6.91
-1.55
-10.46
-19.47
-28.43
-37.37
-46.38
-55.53
-64.76
-73.74
-81.94
-88.55
-92.70
-93.57
-90.73
-84.25
-74.81
-63.61
-52.00
-41.22
-32.17
-25.37
-21.02
-19.13
-19.56
-21.88
-25.40
-29.08
-31.77
-32.53
-30.82
-26.78
-21.10
-14.80
-8.84
-3.91
-0.22
2.40
4.36
6.11
7.93
9.95
12.11
14.29
16.38
18.28
19.93
21.23
22.02
22.20
21.73
20.76
19.62
18.76
18.52
19.05
20.17
21.46
22.50
22.99
22.89
22.33
21.48
20.45
19.21
17.72
15.94
13.97
12.03
10.35
9.03
8.07
7.30
6.52
5.61
4.54
3.39
2.28
1.26
0.31
-0.63
-1.66
-2.82
-4.07
-5.34
-6.56
-7.67
-8.69
-9.71
-10.79
-12.02
-13.42
-15.03
-16.87
-18.97
-21.37
-24.02
-26.74
-29.09
-30.54
-30.55
-28.88
-25.64
-21.41
-16.95
-12.97
-9.88
-7.72
-6.29
-5.28
-4.43
-3.59
-2.68
-1.67
-0.58
0.56
1.71
2.76
3.62
4.20
4.45
4.41
4.11
3.69
3.30
3.06
2.98
2.99
3.00
3.02
3.02
2.87
2.43
1.53
0.09
-1.84
-4.05
-6.07
-7.46
-8.17
-8.62
-9.47
-11.28
-14.31
-18.45
-23.29
-27.96
-31.50
-33.42
-33.91
-33.63
-33.39
-33.78
-34.86
-36.00
-35.65
-31.95
-23.70
-10.72
6.18
25.41
44.79
61.90
72.24
72.08
61.55
44.80
27.46
13.84
5.62
1.99
0.64
-0.81
-3.57
-7.51
-11.78
-15.16
-16.10
-12.96
-4.73
8.26
24.06
39.82
53.16
62.16
65.66
63.63
56.94
46.74
34.07
20.00
6.03
-5.86
-13.78
-16.38
-13.36
-5.66
4.55
14.34
21.20
23.96
23.07
20.15
17.16
14.87
13.90
14.12
14.89
15.53
15.76
15.69
15.50
15.15
14.28
12.53
9.59
5.57
1.06
-3.11
-6.23
-8.12
-9.17
-10.16
-11.88
-14.87
-19.20
-24.40
-29.68
-34.27
-37.75
-40.13
-41.80
-43.27
-45.02
-47.28
-49.96
-52.60
-54.56
-55.16
-53.86
-50.47
-45.17
-38.50
-31.25
-24.21
-17.97
-12.89
-8.99
-6.07
-3.75
-1.54
1.01
4.20
8.02
12.17
16.15
19.45
21.76
23.11
23.77
24.12
24.50
25.07
25.81
26.56
27.14
27.43
27.38
27.00
26.35
25.48
24.41
23.16
21.79
20.39
19.09
18.00
17.12
16.36
15.60
14.76
13.86
13.03
12.42
12.12
12.10
12.19
12.18
11.90
11.27
10.31
9.12
7.80
6.44
5.11
3.83
2.66
1.61
0.73
-0.01
-0.64
-1.28
-2.08
-3.19
-4.70
-6.54
-8.55
-10.48
-12.12
-13.40
-14.37
-15.21
-16.16
-17.46
-19.29
-21.74
-24.73
-27.96
-30.90
-32.86
-33.19
-31.54
-28.02
-23.19
-17.82
-12.72
-8.45
-5.26
-3.12
-1.79
-0.85
0.10
1.45
3.41
5.90
8.65
11.20
13.14
14.21
14.37
13.78
12.72
11.50
10.41
9.62
9.18
9.02
8.98
8.91
8.73
8.47
8.21
8.05
8.01
8.04
8.11
8.19
8.32
8.55
8.96
9.52
10.15
10.71
11.06
11.14
11.01
10.79
10.63
10.61
10.69
10.72
10.53
9.99
9.05
7.78
6.30
4.77
3.35
2.16
1.26
0.64
0.14
-0.42
-1.25
-2.37
-3.65
-4.79
-5.49
-5.63
-5.42
-5.33
-5.90
-7.46
-9.94
-12.91
-15.79
-18.07
-19.57
-20.46
-20.98
-21.31
-21.27
-20.45
-18.22
-13.97
-7.10
2.84
16.00
31.81
48.58
63.41
72.82
73.78
65.08
47.95
25.82
3.01
-16.89
-32.18
-43.21
-51.52
-58.70
-65.61
-72.34
-78.80
-85.43
-93.11
-102.67
-113.77
-124.39
-131.03
-129.88
-118.21
-95.31
-62.32
-21.39
25.20
75.19
125.82
173.31
212.89
240.02
251.88
248.38
231.79
205.50
172.53
135.26
96.02
57.99
25.37
2.17
-9.45
-10.56
-5.18
1.38
4.73
2.93
-3.36
-12.02
-20.90
-28.69
-35.16
-40.60
-45.32
-49.34
-52.38
-54.23
-54.89
-54.75
-54.57
-55.07
-56.66
-59.10
-61.56
-62.83
-61.85
-58.17
-52.12
-44.79
-37.45
-31.17
-26.40
-22.92
-20.14
-17.43
-14.44
-11.14
-7.73
-4.45
-1.39
1.45
4.17
6.81
9.24
11.28
12.74
13.53
13.75
13.69
13.63
13.81
14.30
14.98
15.65
16.11
16.20
15.93
15.39
14.70
13.98
13.27
12.61
12.01
11.54
11.27
11.25
11.39
11.48
11.30
10.69
9.64
8.36
7.08
6.00
5.19
4.54
3.86
3.04
2.03
0.94
-0.10
-0.96
-1.67
-2.33
-3.13
-4.29
-5.86
-7.76
-9.77
-11.62
-13.09
-14.11
-14.78
-15.28
-15.82
-16.57
-17.73
-19.46
-21.82
-24.67
-27.57
-29.81
-30.67
-29.67
-26.78
-22.49
-17.56
-12.77
-8.63
-5.32
-2.72
-0.61
1.27
3.06
4.84
6.61
8.33
9.93
11.38
12.68
13.82
14.79
15.52
15.94
16.00
15.80
15.49
15.32
15.44
15.90
16.52
17.03
17.16
16.77
15.94
14.93
14.04
13.48
13.29
13.35
13.42
13.32
12.96
12.37
11.64
10.86
10.08
9.31
8.55
7.77
6.94
6.02
5.01
3.97
2.97
2.09
1.38
0.77
0.17
-0.58
-1.54
-2.78
-4.29
-6.11
-8.20
-10.43
-12.61
-14.55
-16.21
-17.74
-19.45
-21.56
-23.99
-26.27
-27.69
-27.63
-25.83
-22.58
-18.47
-14.22
-10.33
-7.06
-4.45
-2.49
-1.14
-0.29
0.28
0.90
1.91
3.52
5.66
8.01
10.13
11.64
12.37
12.44
12.12
11.77
11.64
11.83
12.26
12.81
13.35
13.81
14.19
14.50
14.70
14.73
14.54
14.15
13.63
13.10
12.63
12.22
11.83
11.39
10.87
10.22
9.42
8.35
6.91
5.01
2.65
0.02
-2.67
-5.18
-7.37
-9.25
-11.03
-12.95
-15.21
-17.82
-20.62
-23.28
-25.47
-27.05
-28.10
-28.93
-29.90
-31.30
-33.29
-35.86
-38.97
-42.49
-46.21
-49.79
-52.84
-55.01
-56.12
-56.18
-55.22
-53.19
-49.81
-44.68
-37.59
-28.74
-18.87
-9.15
-0.72
5.64
9.78
12.16
13.59
14.89
16.56
18.67
20.99
23.15
24.87
26.08
26.89
27.40
27.61
27.41
26.64
25.24
23.38
21.42
19.76
18.64
18.05
17.74
17.39
16.71
15.62
14.25
12.83
11.51
10.37
9.31
8.20
6.96
5.65
4.47
3.67
3.44
3.82
4.63
5.60
6.38
6.74
6.58
5.98
5.10
4.16
3.32
2.69
2.34
2.28
2.54
3.08
3.83
4.71
5.53
6.12
6.29
5.96
5.14
4.00
2.75
1.66
0.88
0.47
0.40
0.56
0.84
1.19
1.62
2.13
2.74
3.36
3.88
4.19
4.28
4.24
4.23
4.36
4.64
4.92
5.01
4.75
4.16
3.41
2.76
2.36
2.21
2.16
2.00
1.63
1.03
0.33
-0.40
-1.14
-1.96
-2.91
-3.96
-5.02
-5.95
-6.68
-7.25
-7.79
-8.45
-9.36
-10.55
-12.06
-13.91
-16.17
-18.80
-21.66
-24.39
-26.47
-27.34
-26.67
-24.44
-21.06
-17.21
-13.54
-10.53
-8.29
-6.74
-5.67
-4.94
-4.45
-4.07
-3.60
-2.77
-1.41
0.47
2.62
4.64
6.21
7.17
7.62
7.79
7.93
8.18
8.56
9.05
9.57
10.08
10.53
10.84
10.94
10.79
10.38
9.82
9.26
8.83
8.61
8.55
8.56
8.51
8.31
7.95
7.47
6.94
6.40
5.85
5.27
4.59
3.75
2.73
1.62
0.54
-0.38
-1.05
-1.53
-1.99
-2.67
-3.74
-5.23
-6.98
-8.75
-10.32
-11.59
-12.61
-13.60
-14.85
-16.64
-19.06
-21.96
-24.89
-27.20
-28.21
-27.48
-24.93
-20.89
-15.91
-10.66
-5.68
-1.34
2.10
4.53
5.92
6.36
6.11
5.52
5.02
4.93
5.35
6.18
7.13
7.90
8.32
8.36
8.16
7.90
7.75
7.78
7.95
8.17
8.39
8.60
8.87
9.30
9.92
10.65
11.28
11.66
11.69
11.43
11.08
10.81
10.75
10.85
11.00
11.04
10.87
10.45
9.84
9.08
8.23
7.35
6.45
5.52
4.48
3.25
1.77
0.07
-1.81
-3.76
-5.70
-7.59
-9.35
-10.91
-12.27
-13.52
-14.83
-16.40
-18.26
-20.12
-21.39
-21.31
-19.28
-15.11
-9.18
-2.28
4.64
10.81
15.88
19.94
23.39
26.68
30.11
33.70
37.22
40.31
42.70
44.30
45.25
45.78
46.12
46.41
46.66
46.78
46.56
45.68
43.65
39.82
33.57
24.61
13.25
0.62
-11.56
-21.55
-28.18
-31.24
-31.51
-30.22
-28.46
-26.82
-25.36
-23.94
-22.58
-21.57
-21.32
-22.06
-23.60
-25.45
-27.01
-27.94
-28.25
-28.18
-28.06
-28.09
-28.33
-28.74
-29.25
-29.89
-30.73
-31.76
-32.83
-33.57
-33.53
-32.23
-29.46
-25.31
-20.27
-15.01
-10.23
-6.40
-3.62
-1.70
-0.21
1.31
3.20
5.59
8.47
11.67
14.95
18.05
20.70
22.71
23.93
24.39
24.21
23.61
22.81
21.99
21.23
20.54
19.82
18.92
17.71
16.11
14.16
12.01
9.91
8.16
6.91
6.17
5.74
5.33
4.63
3.40
1.57
-0.80
-3.54
-6.44
-9.39
-12.38
-15.47
-18.71
-22.01
-25.14
-27.73
-29.43
-30.08
-29.80
-28.96
-28.06
-27.54
-27.67
-28.49
-29.76
-31.08
-31.89
-31.61
-29.87
-26.67
-22.52
-18.38
-15.28
-14.00
-14.61
-16.44
-18.26
-18.71
-16.80
-12.12
-4.89
4.28
14.65
25.59
36.61
47.21
56.86
64.82
70.32
72.62
71.33
66.53
58.90
49.55
39.84
31.05
24.07
19.26
16.47
15.17
14.71
14.49
14.13
13.43
12.38
11.03
9.51
7.98
6.67
5.79
5.50
5.69
5.95
5.66
4.23
1.45
-2.29
-6.03
-8.54
-8.70
-5.92
-0.25
7.63
16.71
25.91
34.28
41.12
45.88
48.16
47.63
44.12
37.65
28.62
17.84
6.47
-4.20
-13.06
-19.47
-23.37
-25.15
-25.47
-24.92
-23.91
-22.63
-21.17
-19.59
-17.98
-16.45
-15.06
-13.78
-12.45
-10.88
-8.98
-6.79
-4.56
-2.61
-1.23
-0.53
-0.32
-0.27
0.03
0.85
2.24
3.97
5.74
7.22
8.19
8.62
8.57
8.22
7.76
7.38
7.18
7.17
7.27
7.35
7.33
7.16
6.86
6.42
5.78
4.92
3.94
3.07
2.63
2.87
3.79
5.13
6.52
7.64
8.40
8.92
9.35
9.72
9.80
9.24
7.71
5.07
1.37
-3.23
-8.59
-14.55
-20.88
-27.13
-32.64
-36.72
-38.86
-38.94
-37.29
-34.45
-31.03
-27.50
-24.12
-21.01
-18.22
-15.81
-13.82
-12.19
-10.74
-9.25
-7.47
-5.26
-2.62
0.31
3.26
5.91
7.94
9.15
9.48
9.02
7.96
6.56
5.06
3.62
2.39
1.41
0.71
0.29
0.12
0.18
0.40
0.67
0.87
0.90
0.71
0.33
-0.18
-0.71
-1.23
-1.69
-2.12
-2.53
-2.90
-3.22
-3.48
-3.68
-3.91
-4.23
-4.75
-5.52
-6.56
-7.82
-9.22
-10.69
-12.21
-13.85
-15.64
-17.56
-19.37
-20.70
-21.12
-20.35
-18.39
-15.52
-12.26
-9.13
-6.54
-4.67
-3.48
-2.77
-2.30
-1.85
-1.26
-0.52
0.29
1.05
1.67
2.14
2.47
2.71
2.85
2.87
2.75
2.56
2.44
2.54
2.98
3.69
4.50
5.19
5.56
5.60
5.45
5.33
5.42
5.77
6.29
6.81
7.16
7.28
7.23
7.12
7.08
7.13
7.28
7.46
7.65
7.83
8.01
8.11
8.04
7.69
6.99
5.94
4.64
3.25
1.90
0.65
-0.53
-1.78
-3.21
-4.85
-6.55
-8.01
-8.87
-8.88
-7.98
-6.33
-4.25
-2.09
-0.12
1.52
2.77
3.59
3.99
4.02
3.80
3.58
3.56
3.87
4.44
5.02
5.32
5.07
4.21
2.86
1.27
-0.26
-1.54
-2.44
-2.96
-3.17
-3.18
-3.11
-3.08
-3.20
-3.49
-3.88
-4.26
-4.49
-4.48
-4.22
-3.83
-3.46
-3.26
-3.31
-3.60
-4.07
-4.61
-5.14
-5.61
-6.03
-6.43
-6.83
-7.30
-7.90
-8.75
-9.93
-11.46
-13.18
-14.75
-15.75
-15.77
-14.61
-12.40
-9.51
-6.47
-3.79
-1.77
-0.42
0.47
1.22
2.12
3.30
4.68
6.14
7.51
8.70
9.68
10.47
11.08
11.46
11.62
11.58
11.46
11.42
11.62
12.14
12.92
13.77
14.43
14.69
14.44
13.72
12.70
11.59
10.52
9.51
8.50
7.45
6.37
5.38
4.60
4.07
3.65
3.05
2.02
0.47
-1.46
-3.48
-5.35
-6.96
-8.43
-10.04
-12.03
-14.45
-17.20
-20.08
-22.94
-25.73
-28.43
-30.94
-33.11
-34.66
-35.23
-34.57
-32.66
-29.75
-26.27
-22.73
-19.65
-17.55
-16.82
-17.30
-18.50
-19.68
-20.15
-19.48
-17.63
-15.09
-12.96
-12.45
-14.12
-17.85
-23.01
-28.69
-34.04
-38.32
-41.32
-43.56
-45.66
-47.41
-47.96
-46.37
-41.85
-34.08
-22.85
-8.41
8.16
24.98
40.08
51.05
55.35
51.23
37.40
16.16
-6.14
-23.08
-34.35
-41.65
-45.82
-46.25
-39.59
-23.72
2.21
36.64
75.41
112.91
144.09
165.00
173.09
167.67
149.85
122.93
91.40
59.60
31.02
8.44
-6.53
-13.13
-10.83
0.58
20.76
47.51
76.06
99.98
113.56
113.84
101.65
81.14
57.71
35.92
17.82
2.96
-10.29
-22.91
-34.56
-43.81
-49.17
-50.12
-47.34
-42.49
-37.43
-33.54
-31.15
-29.84
-28.80
-27.39
-25.43
-23.18
-21.13
-19.70
-18.94
-18.54
-18.02
-16.93
-15.12
-12.80
-10.42
-8.46
-7.17
-6.53
-6.31
-6.18
-5.95
-5.56
-5.08
-4.64
-4.31
-4.15
-4.13
-4.23
-4.45
-4.81
-5.32
-5.98
-6.80
-7.79
-9.02
-10.68
-12.99
-16.26
-20.72
-26.51
-33.44
-40.90
-47.79
-52.67
-54.05
-50.89
-43.06
-31.50
-18.10
-5.15
5.28
11.91
14.41
13.30
9.54
4.25
-1.61
-7.30
-12.37
-16.73
-20.56
-24.25
-28.11
-32.10
-35.77
-38.29
-38.91
-37.31
-33.82
-29.24
-24.52
-20.34
-16.94
-14.22
-12.03
-10.28
-9.01
-8.23
-7.73
-7.08
-5.87
-3.88
-1.32
1.20
3.02
3.69
3.22
2.06
0.90
0.32
0.55
1.39
2.32
2.82
2.60
1.78
0.83
0.35
0.81
2.37
4.82
7.70
10.50
12.83
14.53
15.60
16.22
16.60
16.98
17.58
18.57
19.99
21.74
23.58
25.22
26.39
26.93
26.82
26.18
25.15
23.92
22.57
21.16
19.66
18.00
16.06
13.79
11.20
8.38
5.53
2.85
0.53
-1.36
-2.87
-4.11
-5.24
-6.38
-7.66
-9.21
-11.13
-13.46
-16.17
-18.99
-21.48
-23.05
-23.26
-21.93
-19.25
-15.65
-11.67
-7.85
-4.58
-2.06
-0.33
0.72
1.36
1.89
2.73
4.08
5.88
7.80
9.47
10.66
11.31
11.55
11.57
11.80
12.47
13.48
14.54
15.41
16.04
16.45
16.79
17.12
17.97
19.59
21.59
23.21
23.88
23.58
22.68
21.87
21.70
23.20
26.59
30.91
34.60
36.57
36.78
35.99
35.72
37.43
43.37
54.64
70.20
87.08
101.56
110.25
110.75
102.45
79.70
43.13
0.66
-37.02
-63.27
-76.97
-79.93
-76.43
-68.37
-57.35
-44.45
-31.51
-21.03
-15.29
-15.09
-20.01
-28.83
-39.65
-50.45
-58.07
-59.89
-55.15
-45.50
-34.23
-25.03
-20.65
-21.68
-26.83
-33.13
-37.97
-40.43
-41.26
-41.76
-42.77
-44.26
-45.37
-45.28
-43.35
-39.67
-35.16
-31.21
-29.02
-29.09
-31.09
-33.94
-36.30
-36.96
-35.38
-31.89
-27.51
-23.37
-20.29
-18.53
-17.83
-17.70
-17.72
-17.72
-17.75
-17.95
-18.35
-18.74
-18.65
-17.53
-15.00
-11.07
-6.26
-1.35
2.81
5.74
7.37
8.08
8.35
8.58
8.89
9.12
9.02
8.38
7.18
5.60
3.92
2.40
1.23
0.39
-0.24
-0.93
-1.96
-3.58
-5.87
-8.73
-11.78
-14.43
-16.03
-16.07
-14.33
-10.98
-6.49
-1.45
3.59
8.33
12.61
16.45
19.85
22.80
25.24
27.13
28.56
29.68
30.76
31.96
33.33
34.74
35.95
36.75
37.06
36.98
36.73
36.51
36.46
36.60
36.85
37.11
37.25
37.12
36.55
35.42
33.77
31.77
29.75
27.99
26.65
25.64
24.76
23.83
22.75
21.58
20.42
19.30
18.18
16.97
15.65
14.27
13.01
12.02
11.37
10.96
10.63
10.17
9.46
8.46
7.21
5.81
4.34
2.86
1.39
-0.02
-1.34
-2.50
-3.48
-4.27
-4.93
-5.63
-6.56
-7.96
-9.97
-12.58
-15.60
-18.67
-21.32
-23.09
-23.61
-22.66
-20.26
-16.64
-12.24
-7.58
-3.19
0.53
3.37
5.34
6.62
7.45
8.07
8.68
9.41
10.35
11.46
12.64
13.68
14.41
14.70
14.61
14.31
13.99
13.76
13.58
13.33
12.92
12.36
11.79
11.39
11.27
11.39
11.55
11.55
11.20
10.48
9.52
8.55
7.78
7.31
7.10
7.01
6.82
6.35
5.53
4.41
3.11
1.76
0.46
-0.74
-1.81
-2.74
-3.51
-4.17
-4.85
-5.67
-6.72
-7.95
-9.20
-10.27
-11.07
-11.64
-12.20
-13.08
-14.54
-16.71
-19.45
-22.37
-24.88
-26.33
-26.22
-24.33
-20.83
-16.21
-11.08
-6.01
-1.42
2.45
5.48
7.64
8.97
9.69
10.11
10.64
11.58
13.03
14.84
16.65
18.07
18.82
18.82
18.21
17.24
16.18
15.24
14.54
14.12
13.97
14.02
14.15
14.21
14.06
13.65
13.01
12.25
11.50
10.82
10.18
9.49
8.68
7.77
6.81
5.89
5.09
4.38
3.72
3.05
2.34
1.57
0.79
-0.02
-0.86
-1.75
-2.71
-3.72
-4.75
-5.79
-6.86
-8.03
-9.36
-10.90
-12.63
-14.43
-16.12
-17.56
-18.67
-19.55
-20.40
-21.46
-22.94
-24.87
-27.09
-29.18
-30.64
-30.97
-29.89
-27.40
-23.81
-19.60
-15.23
-11.14
-7.58
-4.68
-2.49
-0.94
0.08
0.83
1.58
2.60
3.99
5.73
7.62
9.41
10.86
11.83
12.23
12.08
11.46
10.49
9.38
8.31
7.46
6.93
6.70
6.69
6.80
6.91
6.94
6.88
6.72
6.49
6.27
6.11
6.05
6.04
6.02
5.87
5.49
4.85
4.01
3.08
2.16
1.34
0.64
0.05
-0.44
-0.82
-1.09
-1.30
-1.59
-2.11
-2.96
-4.13
-5.45
-6.73
-7.80
-8.65
-9.40
-10.22
-11.22
-12.42
-13.73
-15.00
-16.16
-17.24
-18.33
-19.57
-21.05
-22.79
-24.78
-26.88
-28.82
-30.24
-30.70
-29.89
-27.70
-24.38
-20.37
-16.23
-12.41
-9.18
-6.55
-4.42
-2.60
-0.95
0.63
2.24
3.92
5.67
7.42
9.04
10.41
11.47
12.24
12.79
13.19
13.46
13.60
13.63
13.61
13.65
13.82
14.13
14.47
14.70
14.66
14.32
13.76
13.11
12.51
12.00
11.56
11.16
10.76
10.35
9.94
9.53
9.13
8.70
8.27
7.82
7.38
6.97
6.56
6.16
5.75
5.36
5.02
4.71
4.33
3.79
3.00
1.96
0.78
-0.39
-1.45
-2.41
-3.37
-4.47
-5.79
-7.33
-9.01
-10.71
-12.37
-14.03
-15.74
-17.58
-19.57
-21.63
-23.66
-25.53
-27.09
-28.17
-28.59
-28.18
-26.87
-24.72
-21.97
-18.96
-16.03
-13.45
-11.30
-9.50
-7.90
-6.37
-4.86
-3.39
-2.03
-0.77
0.47
1.81
3.31
4.90
6.39
7.66
8.66
9.48
10.28
11.18
12.15
13.00
13.51
13.55
13.14
12.42
11.57
10.73
9.94
9.18
8.38
7.45
6.32
4.94
3.34
1.60
-0.15
-1.79
-3.27
-4.55
-5.59
-6.37
-6.85
-7.09
-7.23
-7.48
-8.06
-9.06
-10.43
-12.07
-13.86
-15.73
-17.61
-19.42
-21.06
-22.51
-23.85
-25.23
-26.75
-28.33
-29.59
-29.94
-28.86
-26.05
-21.61
-15.96
-9.71
-3.49
2.17
6.88
10.38
12.57
13.56
13.65
13.33
13.09
13.39
14.48
16.37
18.86
21.59
24.16
26.14
27.28
27.51
26.97
25.96
24.72
23.38
21.86
20.00
17.68
14.98
12.21
9.76
7.97
6.92
6.45
6.25
6.04
5.64
5.01
4.16
3.10
1.81
0.30
-1.33
-2.95
-4.41
-5.61
-6.56
-7.31
-7.96
-8.52
-8.98
-9.37
-9.80
-10.41
-11.38
-12.72
-14.35
-16.07
-17.73
-19.28
-20.85
-22.62
-24.77
-27.41
-30.53
-33.99
-37.53
-40.76
-43.18
-44.28
-43.69
-41.30
-37.31
-32.21
-26.63
-21.16
-16.21
-11.95
-8.29
-5.00
-1.80
1.51
4.97
8.50
11.87
14.90
17.43
19.38
20.74
21.52
21.83
21.86
21.85
22.03
22.55
23.42
24.54
25.71
26.77
27.57
28.04
28.17
28.02
27.66
27.20
26.73
26.27
25.75
25.10
24.22
23.10
21.79
20.39
19.00
17.64
16.31
14.93
13.44
11.83
10.11
8.38
6.74
5.25
3.88
2.51
0.98
-0.88
-3.11
-5.64
-8.30
-10.89
-13.27
-15.37
-17.25
-19.05
-20.99
-23.29
-26.13
-29.55
-33.32
-37.00
-39.88
-41.25
-40.55
-37.60
-32.67
-26.42
-19.68
-13.24
-7.63
-3.05
0.56
3.42
5.83
8.00
10.13
12.35
14.76
17.35
20.02
22.51
24.49
25.65
25.89
25.33
24.30
23.25
22.52
22.30
22.55
23.04
23.49
23.70
23.57
23.15
22.57
21.95
21.30
20.57
19.67
18.51
17.12
15.60
14.10
12.75
11.60
10.59
9.61
8.53
7.30
5.97
4.59
3.27
2.06
0.96
-0.09
-1.18
-2.37
-3.69
-5.15
-6.77
-8.55
-10.46
-12.38
-14.17
-15.66
-16.80
-17.72
-18.74
-20.32
-22.81
-26.32
-30.60
-35.02
-38.74
-40.91
-40.93
-38.50
-33.80
-27.34
-19.85
-12.11
-4.80
1.57
6.75
10.71
13.67
15.99
18.14
20.51
23.27
26.31
29.23
31.50
32.62
32.37
30.81
28.37
25.66
23.35
21.95
21.72
22.56
24.05
25.67
26.85
27.26
26.78
25.49
23.51
21.01
18.21
15.37
12.85
10.98
9.91
9.52
9.43
9.18
8.43
7.12
5.45
3.69
2.02
0.43
-1.24
-3.10
-5.14
-7.18
-8.98
-10.40
-11.52
-12.59
-13.88
-15.55
-17.55
-19.66
-21.63
-23.36
-24.90
-26.45
-28.27
-30.53
-33.30
-36.44
-39.57
-42.08
-43.30
-42.59
-39.65
-34.67
-28.25
-21.24
-14.48
-8.56
-3.69
0.21
3.33
5.91
8.16
10.22
12.25
14.35
16.53
18.71
20.67
22.15
22.95
23.03
22.52
21.69
20.86
20.27
20.03
20.09
20.30
20.52
20.63
20.58
20.36
20.02
19.54
18.97
18.30
17.53
16.63
15.54
14.19
12.62
10.97
9.45
8.29
7.58
7.18
6.80
6.16
5.07
3.55
1.78
-0.05
-1.79
-3.41
-4.90
-6.25
-7.43
-8.39
-9.15
-9.81
-10.58
-11.64
-13.12
-14.98
-17.14
-19.49
-21.97
-24.55
-27.15
-29.49
-31.02
-31.15
-29.44
-25.88
-20.95
-15.48
-10.30
-5.95
-2.55
0.11
2.29
4.17
5.81
7.23
8.54
9.90
11.43
13.12
14.73
15.97
16.63
16.68
16.26
15.61
14.95
14.42
14.07
13.93
13.99
14.19
14.47
14.65
14.59
14.19
13.51
12.73
12.06
11.62
11.40
11.28
11.09
10.69
10.08
9.31
8.47
7.61
6.75
5.93
5.18
4.51
3.90
3.25
2.40
1.19
-0.39
-2.25
-4.16
-5.90
-7.35
-8.56
-9.67
-10.90
-12.38
-14.17
-16.26
-18.62
-21.15
-23.64
-25.74
-26.99
-26.96
-25.43
-22.47
-18.49
-14.14
-10.08
-6.81
-4.57
-3.32
-2.82
-2.73
-2.70
-2.47
-1.89
-0.94
0.30
1.66
2.98
4.07
4.82
5.17
5.18
4.94
4.63
4.39
4.35
4.54
4.95
5.47
5.98
6.37
6.59
6.63
6.54
6.36
6.09
5.67
5.10
4.38
3.62
2.92
2.35
1.88
1.48
1.10
0.76
0.50
0.37
0.33
0.29
0.11
-0.30
-0.88
-1.58
-2.29
-3.01
-3.81
-4.75
-5.90
-7.18
-8.47
-9.60
-10.46
-11.05
-11.49
-11.98
-12.76
-13.97
-15.64
-17.64
-19.68
-21.43
-22.55
-22.75
-21.85
-19.79
-16.74
-13.05
-9.28
-6.00
-3.64
-2.31
-1.79
-1.63
-1.41
-0.83
0.23
1.74
3.67
5.94
8.42
10.84
12.78
13.84
13.78
12.73
11.12
9.52
8.36
7.81
7.77
7.93
8.06
8.09
8.07
8.11
8.27
8.51
8.71
8.76
8.62
8.33
7.99
7.72
7.57
7.54
7.52
7.30
6.65
5.39
3.45
0.89
-2.15
-5.43
-8.79
-12.10
-15.29
-18.35
-21.26
-24.00
-26.54
-28.87
-30.97
-32.82
-34.38
-35.61
-36.51
-37.14
-37.60
-38.04
-38.60
-39.27
-39.89
-40.05
-39.26
-37.10
-33.41
-28.38
-22.57
-16.72
-11.54
-7.46
-4.58
-2.68
-1.37
-0.27
0.88
2.20
3.63
5.10
6.52
7.88
9.22
10.64
12.19
13.84
15.44
16.80
17.71
18.13
18.21
18.25
18.51
19.04
19.70
20.26
20.58
20.77
21.14
22.02
23.53
25.46
27.30
28.49
28.63
27.62
25.68
23.17
20.47
17.89
15.65
13.86
12.55
11.67
11.01
10.33
9.34
7.85
5.89
3.62
1.34
-0.70
-2.44
-3.97
-5.45
-6.99
-8.54
-9.89
-10.89
-11.55
-11.99
-12.49
-13.22
-14.25
-15.54
-17.03
-18.68
-20.44
-22.12
-23.35
-23.57
-22.27
-19.15
-14.27
-8.04
-1.03
6.28
13.50
20.43
26.93
32.80
37.81
41.76
44.60
46.54
47.98
49.48
51.51
54.33
57.87
61.73
65.36
68.24
70.05
70.77
70.61
69.89
68.82
67.39
65.39
62.50
58.51
53.33
47.05
39.89
32.12
24.01
15.87
8.06
1.01
-4.71
-8.50
-9.87
-8.61
-5.05
-0.11
4.87
8.49
9.73
8.29
4.63
-0.18
-4.86
-8.28
-9.71
-9.01
-6.55
-3.23
-0.29
1.08
-0.06
-4.04
-10.63
-19.15
-28.78
-38.70
-48.21
-56.69
-63.54
-68.32
-70.85
-71.35
-70.44
-69.00
-67.82
-67.39
-67.78
-68.61
-69.27
-69.10
-67.64
-64.66
-60.26
-54.79
-48.78
-42.81
-37.31
-32.51
-28.46
-25.01
-22.00
-19.30
-16.82
-14.47
-12.12
-9.60
-6.79
-3.77
-0.78
1.85
3.80
4.98
5.51
5.64
5.61
5.60
5.66
5.77
5.92
6.11
6.30
6.45
6.43
6.13
5.51
4.61
3.57
2.57
1.77
1.21
0.84
0.53
0.20
-0.17
-0.52
-0.73
-0.77
-0.66
-0.47
-0.26
-0.04
0.21
0.44
0.50
0.19
-0.60
-1.81
-3.20
-4.44
-5.26
-5.62
-5.72
-5.83
-6.15
-6.75
-7.52
-8.34
-9.15
-10.03
-11.13
-12.62
-14.56
-16.93
-19.55
-22.18
-24.55
-26.34
-27.25
-27.02
-25.55
-22.93
-19.43
-15.50
-11.67
-8.35
-5.81
-4.06
-2.99
-2.36
-1.95
-1.60
-1.20
-0.71
-0.08
0.64
1.38
1.96
2.21
2.02
1.46
0.73
0.12
-0.15
-0.01
0.41
0.95
1.44
1.85
2.28
2.85
3.64
4.59
5.53
6.25
6.64
6.73
6.71
6.86
7.41
8.49
10.02
11.80
13.54
14.99
16.02
16.60
16.89
17.06
17.27
17.61
18.05
18.43
18.55
18.23
17.37
15.93
13.98
11.58
8.84
5.85
2.75
-0.34
-3.32
-6.14
-8.86
-11.62
-14.56
-17.73
-20.95
-23.84
-25.85
-26.48
-25.46
-22.89
-19.25
-15.15
-11.17
-7.68
-4.77
-2.39
-0.44
1.13
2.40
3.52
4.76
6.44
8.78
11.75
15.10
18.41
21.30
23.60
25.36
26.79
28.17
29.66
31.28
32.94
34.50
35.84
36.94
37.83
38.55
39.14
39.63
40.09
40.53
40.94
41.21
41.11
40.48
39.28
37.67
35.97
34.46
33.21
31.99
30.44
28.22
25.27
21.73
17.94
14.15
10.54
7.19
4.02
0.96
-2.05
-5.15
-8.51
-12.28
-16.45
-20.74
-24.82
-28.49
-31.79
-34.89
-37.93
-41.01
-44.07
-46.96
-49.51
-51.66
-53.81
-56.37
-59.55
-63.20
-66.94
-70.21
-72.46
-73.29
-72.61
-71.50
-71.07
-71.85
-73.68
-76.15
-79.00
-82.13
-85.44
-88.66
-92.79
-98.18
-103.93
-108.45
-110.64
-110.54
-108.81
-106.08
-102.48
-100.29
-100.82
-103.49
-106.15
-106.82
-104.83
-100.85
-96.29
-92.68
-94.18
-102.81
-116.82
-131.84
-143.82
-151.10
-154.03
-153.71
-130.80
-77.28
-1.65
75.39
135.90
173.42
191.29
197.41
199.76
203.34
206.04
203.95
195.43
182.44
168.36
156.46
148.35
143.99
141.89
137.40
126.45
107.97
83.88
57.10
30.53
7.28
-9.26
-16.28
-11.22
5.54
31.32
61.16
87.88
104.04
105.01
90.77
65.55
35.53
7.07
-14.19
-23.28
-18.56
-4.63
10.85
22.35
28.22
29.18
26.50
21.62
15.96
10.66
7.04
6.72
10.68
17.92
26.17
31.28
30.02
21.28
6.12
-12.69
-31.46
-46.92
-57.33
-62.92
-65.81
-68.75
-74.31
-84.07
-98.04
-113.96
-128.45
-138.53
-142.92
-142.46
-138.98
-133.82
-127.10
-117.90
-105.40
-90.28
-74.95
-62.54
-55.17
-52.64
-52.53
-51.58
-47.22
-38.51
-26.29
-12.35
1.42
13.71
23.97
32.49
39.56
45.18
48.98
50.51
49.49
45.88
40.00
32.33
23.64
14.39
4.55
-6.17
-17.79
-29.67
-40.68
-49.46
-55.11
-56.85
-54.96
-50.86
-46.52
-43.48
-42.42
-43.34
-45.60
-48.32
-48.64
-44.50
-35.75
-23.91
-10.68
2.92
16.28
29.68
43.48
62.02
87.98
120.22
154.56
187.13
216.12
241.05
263.16
283.33
308.05
340.59
378.07
413.28
440.28
457.34
465.28
467.55
466.61
471.73
487.99
513.05
539.18
560.20
574.15
580.64
581.21
524.22
388.09
195.08
-4.51
-172.47
-296.74
-376.36
-428.99
-463.53
-484.16
-485.49
-466.08
-429.93
-388.63
-352.89
-327.85
-314.23
-307.67
-303.83
-293.71
-273.04
-245.34
-220.07
-205.59
-205.24
-217.88
-237.31
-256.43
-265.13
-257.44
-234.16
-202.17
-169.41
-141.54
-121.48
-108.41
-100.29
-92.92
-83.31
-70.92
-57.28
-43.78
-30.78
-18.25
-5.92
5.63
15.87
24.12
29.78
32.54
32.71
30.88
27.43
22.76
17.50
12.80
10.34
11.64
17.26
26.28
36.63
45.95
52.53
55.87
56.52
55.59
54.19
53.31
53.74
56.16
60.96
67.87
76.05
84.17
91.27
97.38
103.76
112.29
124.32
139.43
155.07
166.99
170.54
162.34
142.06
113.29
83.09
59.97
50.97
58.91
81.48
112.69
145.83
176.40
203.02
226.48
247.28
263.88
272.89
270.87
256.51
231.72
201.05
169.75
142.40
121.99
110.01
106.57
110.45
119.08
128.89
136.19
138.27
134.11
124.32
110.40
93.96
76.25
58.09
40.03
22.35
4.89
-13.02
-32.47
-54.41
-78.98
-105.50
-132.71
-159.39
-185.48
-212.17
-241.33
-274.61
-312.11
-351.90
-390.35
-423.15
-446.46
-457.77
-456.08
-442.20
-419.29
-393.05
-371.00
-360.22
-364.34
-381.15
-402.96
-419.10
-420.20
-401.82
-365.33
-315.60
-257.40
-193.05
-123.25
-50.63
18.31
73.76
106.42
112.62
97.06
71.70
50.85
45.02
56.10
78.71
103.97
124.12
135.23
137.62
134.42
129.48
125.72
123.09
121.10
120.07
121.28
125.85
133.26
140.82
144.45
140.70
127.00
105.49
82.72
66.14
59.62
61.16
64.35
62.23
63.93
76.05
100.15
131.82
164.62
193.14
214.18
227.60
236.14
242.19
247.30
251.27
253.32
252.88
249.59
243.31
233.98
221.01
208.33
195.94
183.06
169.19
154.21
138.18
121.13
103.32
85.38
68.23
51.31
34.06
16.24
-2.30
-22.02
-43.67
-67.96
-95.08
-124.39
-155.60
-188.02
-220.54
-251.89
-280.75
-306.18
-327.96
-347.16
-366.18
-387.90
-413.29
-439.87
-462.37
-474.34
-470.92
-451.19
-418.73
-380.01
-341.61
-307.94
-280.43
-258.77
-241.42
-226.24
-210.79
-192.44
-168.59
-137.35
-98.18
-52.61
-4.96
40.33
80.93
117.32
151.71
186.35
221.59
255.02
282.64
298.78
301.47
294.30
283.30
272.30
261.38
248.81
234.06
219.83
206.45
196.40
194.52
203.96
222.07
241.74
255.61
259.07
250.80
223.86
176.08
114.46
50.80
-6.74
-55.76
-97.39
-133.91
-167.63
-211.50
-274.24
-353.52
-440.50
-528.50
-614.14
-693.57
-760.37
-740.25
-601.71
-386.63
-171.26
-3.30
107.81
172.94
208.93
230.90
248.54
254.81
243.17
217.45
189.23
167.90
157.20
156.65
163.58
174.49
177.69
166.14
143.11
118.33
99.44
89.12
86.64
89.67
95.44
96.33
87.83
72.01
55.04
41.71
33.70
30.49
30.59
32.32
31.69
26.38
17.34
7.60
-0.44
-5.88
-8.86
-9.95
-9.81
-9.92
-11.15
-13.17
-14.88
-15.42
-14.38
-11.67
-7.52
-2.29
3.51
9.33
14.59
18.91
22.16
24.56
26.48
28.41
30.58
32.94
35.10
36.56
36.99
36.44
35.40
34.64
34.92
36.56
39.35
42.51
45.17
46.69
46.99
46.59
46.33
47.10
49.63
54.29
60.98
68.85
76.12
80.18
78.13
68.12
50.31
27.32
3.48
-16.71
-30.30
-36.87
-38.30
-37.72
-37.73
-39.35
-42.09
-44.67
-46.02
-45.87
-44.75
-42.24
-38.41
-33.27
-26.83
-19.39
-11.72
-5.02
-0.45
1.37
0.70
-1.56
-3.89
-4.93
-3.97
-1.26
2.16
5.01
6.34
6.07
4.83
3.81
4.13
6.30
10.01
14.32
18.11
20.60
21.53
21.15
20.01
18.65
17.35
16.13
14.82
13.26
11.40
9.37
7.27
5.25
3.36
1.59
-0.13
-1.88
-3.69
-5.47
-7.09
-8.45
-9.56
-10.66
-12.01
-13.74
-15.61
-17.13
-17.88
-17.79
-17.35
-17.29
-18.25
-20.34
-23.12
-25.88
-28.09
-29.61
-30.56
-30.84
-29.88
-26.77
-20.85
-12.31
-2.54
6.22
11.67
12.37
8.37
1.29
-6.36
-12.01
-14.06
-12.25
-7.60
-1.74
3.71
7.74
10.01
10.67
10.01
8.23
5.42
1.75
-2.45
-6.66
-10.34
-13.07
-14.68
-15.26
-15.00
-14.08
-12.61
-10.65
-8.29
-5.72
-3.28
-1.31
-0.04
0.60
0.92
1.36
2.20
3.52
5.15
6.85
8.47
10.00
11.46
12.75
13.59
13.67
12.81
11.12
8.89
6.46
4.01
1.58
-0.84
-3.15
-5.21
-6.97
-8.54
-10.17
-12.12
-14.37
-16.66
-18.56
-19.67
-19.93
-19.55
-18.94
-18.50
-18.57
-19.24
-20.35
-21.53
-22.19
-21.74
-19.90
-16.89
-13.53
-10.94
-10.07
-11.25
-14.05
-17.44
-20.28
-21.79
-21.77
-20.60
-18.99
-17.70
-17.35
-18.22
-20.23
-22.96
-25.72
-27.72
-28.26
-27.07
-24.60
-22.42
-23.35
-30.75
-47.34
-73.59
-107.00
-142.66
-175.21
-201.17
-220.08
-233.96
-244.99
-253.38
-256.62
-250.85
-233.43
-204.93
-169.15
-131.20
-94.93
-61.44
-29.50
2.56
35.00
65.98
92.48
111.94
123.56
128.62
129.57
128.67
127.04
124.39
119.59
111.63
100.43
87.00
73.16
60.88
51.59
45.73
42.83
41.80
41.41
40.73
39.32
37.25
34.81
32.37
30.18
28.28
26.58
24.97
23.44
22.16
21.48
21.76
23.26
25.93
29.46
33.42
37.43
41.37
45.21
48.95
52.39
55.07
56.57
56.76
56.07
55.37
55.70
57.62
60.94
64.66
67.33
67.74
65.46
61.08
55.92
51.48
48.81
48.11
48.75
49.57
49.41
47.49
43.61
38.16
31.96
26.08
21.54
19.06
18.85
20.51
22.99
24.78
24.29
20.29
12.30
0.84
-12.77
-26.79
-39.64
-50.42
-59.06
-66.22
-72.74
-79.14
-85.22
-90.00
-92.05
-90.09
-83.44
-72.41
-58.19
-42.60
-27.52
-14.45
-4.23
3.02
7.71
10.54
12.28
13.64
15.23
17.50
20.67
24.64
29.05
33.34
36.91
39.38
40.65
40.97
40.79
40.56
40.49
40.51
40.34
39.66
38.33
36.47
34.41
32.55
31.17
30.30
29.71
29.05
28.07
26.71
25.13
23.61
22.43
21.70
21.34
21.19
21.03
20.69
20.00
18.78
16.81
13.99
10.46
6.74
3.68
2.14
2.61
4.88
8.09
11.04
12.61
12.25
10.04
6.57
2.61
-1.15
-4.28
-6.62
-8.29
-9.66
-11.18
-13.44
-16.83
-21.44
-26.83
-32.06
-36.04
-37.89
-37.38
-35.03
-31.82
-28.72
-26.24
-24.14
-21.58
-17.64
-11.71
-3.91
5.02
13.88
21.39
26.51
28.65
27.78
24.49
19.84
15.09
11.31
8.98
8.09
8.20
8.82
9.72
10.90
12.53
14.62
16.87
18.73
19.64
19.27
17.69
15.19
12.13
8.77
5.26
1.91
-0.59
-1.21
1.02
6.51
14.62
23.73
31.77
37.04
38.81
37.50
34.29
30.51
27.11
24.40
22.30
20.56
19.02
17.66
16.46
15.36
14.18
12.73
10.94
8.91
6.88
5.09
3.70
2.68
1.85
0.97
-0.16
-1.62
-3.36
-5.22
-7.01
-8.60
-10.04
-11.52
-13.30
-15.58
-18.30
-21.06
-23.03
-23.47
-22.00
-18.84
-14.60
-10.08
-5.96
-2.58
0.01
2.15
4.08
5.88
7.43
8.65
9.62
10.54
11.62
12.96
14.77
16.96
19.10
20.68
21.46
21.53
21.20
20.73
20.29
20.80
22.77
25.81
28.94
31.31
32.67
33.25
33.53
34.00
36.79
42.77
50.67
57.85
62.32
63.81
63.54
63.17
63.96
69.16
79.74
93.38
105.97
114.63
119.01
120.58
121.32
123.13
131.40
149.44
176.05
206.32
234.32
255.20
265.58
263.97
227.08
149.11
46.62
-52.13
-127.46
-175.80
-202.95
-216.29
-221.18
-220.56
-212.21
-195.37
-173.42
-151.77
-134.66
-123.28
-116.49
-112.36
-109.35
-103.82
-94.32
-83.68
-75.36
-72.08
-74.23
-80.41
-88.76
-97.65
-104.42
-105.21
-102.00
-97.70
-94.41
-92.52
-91.24
-89.45
-86.48
-81.43
-74.48
-67.36
-61.64
-58.21
-56.76
-56.15
-55.13
-52.98
-49.51
-45.42
-42.31
-41.29
-42.62
-45.53
-48.57
-50.48
-50.60
-49.24
-47.41
-46.49
-47.37
-50.68
-56.78
-65.51
-75.50
-83.71
-85.81
-77.71
-57.77
-28.08
5.65
36.17
57.69
68.05
69.13
65.00
59.64
55.01
51.03
46.67
41.33
35.52
30.45
27.20
25.89
25.62
25.13
23.23
19.55
14.53
9.16
4.47
1.24
-0.32
-0.47
0.25
1.30
2.39
3.52
5.04
7.34
10.79
15.56
21.58
28.58
36.39
44.90
53.89
62.55
69.28
71.90
68.55
58.62
43.38
25.72
9.22
-3.19
-10.16
-12.19
-11.02
-8.75
-7.00
-6.44
-6.95
-7.94
-8.81
-9.27
-9.28
-9.03
-8.66
-8.17
-7.36
-6.07
-4.44
-2.94
-2.27
-3.00
-5.23
-8.43
-11.70
-14.15
-15.21
-14.91
-13.71
-12.32
-11.37
-11.27
-12.06
-13.55
-15.29
-16.72
-17.22
-16.23
-13.50
-9.19
-4.01
0.99
4.70
6.40
5.89
3.49
-0.17
-4.34
-8.29
-11.26
-12.54
-11.54
-7.97
-2.15
5.09
12.67
19.54
24.97
28.54
29.99
29.20
26.26
21.51
15.69
9.83
4.93
1.68
0.25
0.33
1.37
2.82
4.22
5.31
5.99
6.17
5.91
5.33
4.54
3.66
2.90
2.40
2.24
2.42
2.76
3.09
3.19
2.98
2.49
1.84
1.14
0.49
-0.05
-0.45
-0.71
-0.83
-0.83
-0.79
-0.80
-0.99
-1.41
-2.06
-2.81
-3.48
-3.93
-4.08
-3.95
-3.67
-3.36
-3.19
-3.30
-3.84
-4.96
-6.79
-9.28
-12.19
-14.98
-16.95
-17.41
-15.95
-12.57
-7.73
-2.24
2.99
7.15
9.72
10.63
10.22
9.09
7.88
7.07
6.88
7.31
8.24
9.50
10.95
12.49
13.98
15.17
15.80
15.76
15.22
14.55
14.13
14.22
14.80
15.55
15.90
15.37
13.76
11.37
8.82
6.84
5.96
6.40
7.83
9.51
10.46
10.07
8.56
6.93
6.69
9.26
15.35
24.45
34.56
42.57
45.37
41.00
29.25
11.81
-8.24
-26.71
-38.69
-40.70
-32.68
-17.98
-1.19
14.18
26.76
36.75
44.91
51.84
57.14
59.58
57.43
49.14
33.64
10.73
-18.16
-49.50
-77.14
-93.72
-92.92
-71.56
-30.89
23.51
83.25
140.53
186.03
213.17
219.47
206.57
179.05
142.78
103.18
64.29
28.62
-2.55
-28.00
-46.65
-58.00
-62.85
-63.21
-61.54
-59.57
-57.45
-53.91
-47.07
-36.22
-22.96
-10.70
-2.72
-0.15
-0.86
-0.33
5.88
19.93
40.01
60.82
75.88
80.43
73.52
58.37
41.02
28.17
25.38
35.81
59.63
94.11
134.21
173.47
205.36
224.96
230.22
222.42
205.57
184.68
164.09
146.24
131.54
118.99
107.31
95.64
83.69
71.62
59.53
47.23
34.07
19.12
1.39
-19.71
-44.10
-71.05
-99.23
-127.33
-154.48
-180.49
-205.97
-232.34
-261.71
-296.24
-336.87
-381.49
-424.04
-455.09
-464.82
-446.53
-399.77
-331.05
-252.09
-176.50
-116.04
-77.96
-63.72
-69.22
-86.24
-104.79
-116.04
-114.58
-99.97
-76.09
-49.05
-24.50
-6.00
5.24
9.45
7.25
-0.73
-13.14
-27.40
-39.78
-46.54
-45.31
-36.21
-21.81
-6.15
7.07
15.58
19.27
19.54
18.20
16.53
14.76
12.26
8.11
1.67
-7.11
-17.58
-28.58
-38.71
-46.54
-51.04
-51.86
-49.46
-44.73
-38.78
-32.32
-25.53
-18.09
-9.84
-1.10
6.94
12.60
14.27
11.19
4.06
-5.05
-13.00
-16.54
-13.31
-2.64
14.11
33.74
51.91
64.32
67.85
61.58
47.23
28.80
11.31
-0.65
-4.46
-0.29
9.12
19.58
26.81
27.83
21.59
9.06
-7.21
-23.81
-37.30
-44.84
-44.89
-37.57
-24.78
-9.69
4.13
13.82
18.21
18.05
15.63
13.89
15.34
21.32
31.62
44.62
57.75
68.22
73.81
73.43
67.38
57.28
45.38
33.95
24.65
18.15
14.21
11.97
10.31
8.19
4.93
0.22
-5.70
-12.10
-17.97
-22.28
-24.39
-24.21
-22.22
-19.29
-16.43
-14.39
-13.52
-13.66
-14.34
-15.01
-15.38
-15.65
-16.37
-18.21
-21.55
-26.15
-31.02
-34.55
-34.91
-30.61
-21.20
-7.42
8.79
24.94
38.80
49.13
56.03
60.62
64.34
68.22
72.53
76.83
80.35
82.30
82.14
79.54
74.45
67.05
57.63
46.53
34.03
20.36
5.94
-8.56
-22.20
-33.92
-42.98
-49.20
-52.97
-55.04
-55.93
-55.72
-54.10
-50.77
-45.79
-39.73
-33.29
-26.91
-20.58
-13.95
-6.80
0.54
7.08
11.56
13.00
11.31
7.42
2.90
-0.61
-2.08
-1.29
1.20
4.40
7.26
8.99
9.25
8.02
5.65
2.64
-0.44
-3.03
-4.70
-5.25
-4.91
-4.38
-4.64
-6.39
-9.66
-13.47
-15.95
-15.15
-9.89
-0.52
10.99
21.61
28.39
29.58
25.28
17.24
8.00
-0.23
-6.35
-10.51
-13.74
-17.08
-21.02
-25.23
-28.81
-30.67
-29.96
-26.27
-19.54
-10.14
1.14
13.08
24.13
32.87
38.44
40.86
40.94
39.73
38.09
36.36
34.57
32.92
32.07
33.06
36.67
42.78
50.08
56.41
59.64
58.61
53.68
46.44
38.99
32.96
28.96
26.46
24.31
21.25
16.55
10.23
3.11
-3.53
-8.37
-10.56
-9.99
-7.42
-4.09
-1.28
0.21
0.26
-0.62
-1.87
-3.28
-5.16
-8.32
-13.54
-21.15
-30.74
-41.11
-50.40
-56.52
-57.62
-52.76
-42.32
-27.96
-12.19
2.33
13.72
21.26
25.42
27.32
28.20
28.89
29.82
30.91
31.75
31.78
30.42
27.39
23.07
18.54
15.33
15.03
18.37
24.71
32.08
37.69
39.05
34.96
26.28
15.67
7.02
3.59
6.71
15.26
26.32
36.76
44.81
50.73
56.42
64.61
76.57
91.41
106.57
119.33
128.19
133.24
135.51
136.04
136.17
136.70
138.44
142.57
150.35
162.13
176.11
188.35
194.00
190.65
178.35
159.60
138.20
117.77
100.77
87.91
78.89
66.42
47.78
24.85
3.08
-12.54
-20.31
-21.37
-18.34
-13.27
-7.14
0.97
11.84
25.10
39.30
52.55
63.39
70.64
74.18
74.74
74.34
74.57
75.82
76.81
74.72
70.05
62.09
50.58
36.00
20.04
4.55
-9.21
-21.03
-31.80
-42.98
-56.70
-74.42
-96.44
-121.61
-148.19
-174.51
-199.74
-224.14
-248.77
-275.68
-307.06
-345.23
-391.96
-447.67
-510.10
-573.59
-629.64
-669.20
-686.09
-679.17
-652.74
-614.72
-573.24
-533.90
-498.65
-466.72
-436.56
-407.49
-379.87
-354.30
-330.66
-307.73
-283.75
-257.48
-228.88
-199.20
-170.55
-144.79
-122.82
-104.23
-87.59
-71.18
-53.72
-34.89
-15.41
3.36
20.11
34.14
45.67
55.72
65.69
76.71
89.26
102.93
116.68
129.25
139.79
148.15
155.00
161.58
169.14
178.50
189.69
202.06
214.57
226.33
236.96
246.79
256.69
267.87
281.58
298.85
320.07
344.49
369.88
392.54
407.95
412.17
403.23
382.05
352.26
319.23
288.28
263.16
245.30
233.89
226.83
221.81
216.90
210.69
202.04
189.67
172.41
149.64
122.12
92.33
64.10
41.25
26.17
18.90
17.24
18.09
18.78
17.92
15.43
11.84
7.62
3.04
-1.78
-6.44
-10.19
-12.19
-12.19
-10.86
-9.51
-9.90
-13.42
-20.45
-30.52
-42.15
-53.22
-61.52
-65.09
-63.12
-56.43
-47.53
-40.06
-37.90
-43.49
-56.70
-74.55
-91.93
-103.49
-105.19
-95.62
-76.71
-53.73
-34.14
-25.72
-33.79
-58.88
-96.10
-136.54
-170.72
-192.15
-199.39
-195.05
-183.29
-167.01
-146.00
-118.17
-81.29
-34.84
19.36
77.63
135.10
186.04
224.44
245.28
246.21
229.40
201.69
172.64
151.20
142.41
145.77
156.56
168.73
178.11
184.47
191.30
203.93
226.77
261.08
303.87
348.49
386.72
411.21
417.97
407.07
381.96
347.57
308.13
266.12
222.77
179.50
138.58
102.91
74.51
52.91
34.78
15.39
-8.28
-35.05
-59.35
-74.04
-74.07
-59.24
-33.97
-4.78
22.61
45.12
62.07
73.65
79.49
78.73
71.21
58.35
43.09
27.72
12.68
-3.50
-23.11
-48.08
-79.11
-114.96
-152.10
-184.49
-206.16
-212.36
-201.45
-176.33
-144.43
-115.39
-97.07
-92.04
-97.15
-108.38
-122.69
-138.83
-156.07
-173.20
-187.98
-197.56
-199.74
-194.65
-188.39
-190.06
-207.86
-245.56
-301.68
-370.47
-443.23
-509.81
-544.56
-527.72
-457.86
-356.10
-252.30
-167.60
-108.19
-69.20
-41.77
-18.93
-0.63
9.51
8.85
-0.85
-14.20
-25.34
-30.65
-29.49
-23.53
-17.60
-16.25
-21.22
-30.38
-39.42
-44.26
-43.24
-36.49
-25.86
-15.13
-7.81
-5.61
-7.79
-12.25
-16.75
-20.35
-23.22
-26.29
-31.13
-38.93
-49.87
-62.90
-76.54
-89.06
-99.67
-108.24
-115.03
-120.44
-124.48
-126.47
-124.86
-120.99
-115.09
-107.58
-99.10
-90.29
-81.53
-72.80
-63.80
-54.12
-43.64
-32.14
-19.98
-7.82
3.76
14.58
25.01
35.86
48.01
61.91
77.71
94.83
112.29
129.18
145.13
160.42
175.88
192.60
211.78
234.64
261.79
292.60
324.77
354.25
375.98
385.37
380.01
360.71
331.47
297.86
265.20
236.97
214.43
197.25
184.57
175.79
170.54
168.20
167.36
165.80
161.13
151.73
137.38
119.39
99.99
81.36
64.80
50.47
37.55
24.86
11.52
-2.72
-17.35
-31.43
-43.96
-54.31
-62.36
-68.49
-73.35
-77.51
-81.23
-84.41
-86.77
-88.07
-88.34
-87.94
-87.40
-87.24
-87.64
-88.46
-89.27
-89.53
-88.84
-87.03
-84.16
-80.35
-75.72
-70.30
-64.07
-57.18
-49.96
-42.98
-36.89
-32.16
-28.92
-26.85
-25.34
-23.66
-21.21
-17.67
-12.98
-7.40
-1.34
4.65
10.09
14.70
18.55
22.01
25.50
29.24
33.04
36.37
38.60
39.37
38.67
36.84
34.17
30.77
26.47
21.10
14.73
7.79
0.98
-5.08
-10.09
-14.16
-17.61
-20.73
-23.57
-25.94
-27.57
-28.32
-28.32
-27.91
-27.47
-27.23
-27.13
-26.94
-26.36
-25.30
-23.91
-22.56
-21.74
-21.78
-22.74
-24.39
-26.34
-28.07
-29.14
-29.09
-27.63
-24.64
-20.45
-15.89
-12.25
-10.96
-12.99
-18.40
-26.16
-34.41
-41.21
-45.11
-45.53
-42.65
-37.07
-29.43
-20.52
-11.32
-3.11
2.74
5.33
4.66
1.75
-1.76
-4.30
-4.99
-3.91
-1.83
0.26
1.74
2.48
2.82
3.35
4.61
6.91
10.22
14.17
18.24
22.03
25.37
28.48
31.63
34.87
37.70
39.12
37.95
33.49
26.15
17.65
10.59
7.42
9.35
15.69
23.99
30.99
33.65
29.99
19.33
2.28
-19.42
-42.93
-64.54
-80.16
-86.51
-82.59
-70.69
-56.30
-46.13
-45.16
-54.28
-70.01
-86.41
-98.25
-103.62
-104.33
-104.30
-106.60
-111.24
-115.16
-114.36
-106.58
-92.87
-76.94
-63.00
-53.72
-49.33
-48.05
-47.72
-47.22
-46.95
-48.28
-52.48
-57.04
-58.80
-55.35
-46.38
-33.66
-19.77
-6.50
5.79
18.04
31.01
46.18
63.71
82.33
100.05
115.07
126.59
135.03
141.84
146.82
150.03
151.09
149.56
145.23
138.08
127.96
114.38
96.75
75.11
51.03
27.08
6.28
-9.28
-19.54
-26.49
-32.86
-40.08
-47.10
-50.77
-48.28
-39.37
-27.21
-17.19
-14.29
-20.60
-34.47
-51.69
-67.60
-79.36
-86.44
-89.74
-90.07
-87.37
-80.97
-70.74
-57.94
-45.15
-35.29
-30.16
-29.66
-31.83
-33.72
-32.82
-28.10
-20.15
-10.63
-1.36
6.54
12.99
18.77
24.89
32.03
40.17
48.49
55.67
60.29
61.44
59.11
54.20
48.19
42.63
38.55
36.20
35.19
34.81
34.40
33.49
31.71
28.72
24.09
17.54
9.13
-0.48
-10.17
-18.69
-25.04
-28.85
-30.45
-30.76
-30.92
-31.88
-34.15
-37.69
-42.04
-46.47
-50.14
-52.31
-52.36
-50.03
-45.43
-39.12
-31.99
-24.97
-18.76
-13.60
-9.30
-5.45
-1.64
2.35
6.51
10.69
14.68
18.30
21.37
23.73
25.21
25.77
25.46
24.56
23.43
22.41
21.78
21.64
21.97
22.57
23.20
23.52
23.24
22.14
20.18
17.50
14.42
11.30
8.43
5.99
3.94
2.14
0.37
-1.53
-3.69
-6.13
-8.76
-11.52
-14.30
-17.06
-19.80
-22.54
-25.38
-28.46
-31.97
-36.08
-40.83
-46.02
-51.05
-55.00
-56.83
-55.74
-51.48
-44.48
-35.74
-26.48
-17.75
-10.24
-4.16
0.64
4.48
7.76
10.89
14.18
17.81
21.70
25.52
28.77
30.97
31.83
31.41
30.11
28.46
27.00
26.01
25.53
25.35
25.19
24.82
24.12
23.06
21.63
19.81
17.55
14.82
11.67
8.21
4.59
0.90
-2.88
-6.88
-11.32
-16.35
-22.03
-28.14
-34.25
-39.75
-43.98
-46.40
-46.71
-44.84
-40.92
-35.10
-27.54
-18.45
-8.16
2.71
13.32
22.71
30.04
34.79
36.80
36.29
33.68
29.55
24.47
18.97
13.50
8.30
3.46
-1.16
-5.86
-11.00
-16.92
-23.80
-31.52
-39.60
-47.20
-53.36
-57.26
-58.52
-57.38
-54.63
-51.27
-48.23
-46.02
-44.73
-44.07
-43.58
-42.78
-41.20
-38.54
-34.72
-30.05
-25.18
-20.89
-17.71
-15.66
-14.25
-12.76
-10.62
-7.65
-4.03
-0.02
4.18
8.49
12.68
16.26
18.60
19.25
18.48
17.41
17.88
21.88
30.85
45.31
64.68
87.52
111.91
135.93
158.08
177.70
194.94
210.63
225.65
240.38
254.18
265.31
271.31
269.77
259.15
239.37
211.98
179.65
145.44
112.00
81.06
53.47
29.46
9.03
-7.88
-21.39
-31.93
-40.23
-47.22
-53.64
-59.69
-64.96
-68.64
-70.08
-69.12
-66.37
-62.91
-59.88
-58.00
-57.35
-57.54
-57.99
-58.33
-58.49
-58.61
-58.80
-59.01
-59.02
-58.63
-57.84
-56.96
-56.39
-56.46
-57.14
-58.03
-58.55
-58.15
-56.50
-53.65
-49.82
-45.33
-40.33
-34.86
-28.92
-22.63
-16.32
-10.45
-5.35
-1.06
2.81
6.89
11.79
17.79
24.74
32.10
39.24
45.64
51.07
55.53
59.14
62.00
64.09
65.34
65.63
64.96
63.33
60.78
57.22
52.48
46.48
39.45
32.03
25.16
19.76
16.38
14.99
15.17
16.38
18.26
20.61
23.24
25.70
27.17
26.69
23.46
17.22
8.40
-1.92
-12.30
-21.37
-28.32
-33.09
-36.40
-39.29
-42.60
-46.51
-50.49
-53.62
-55.13
-54.81
-52.96
-50.16
-46.88
-43.31
-39.44
-35.28
-31.00
-26.79
-22.76
-18.75
-14.36
-9.13
-2.87
4.11
10.95
16.49
19.76
20.38
18.89
16.45
14.34
13.37
13.62
14.63
15.91
17.34
19.33
22.53
27.37
33.81
41.34
49.21
56.75
63.55
69.49
74.47
78.36
80.85
81.55
80.29
77.30
73.23
68.76
64.03
58.29
49.97
37.44
20.01
-1.44
-24.55
-46.36
-64.36
-77.38
-85.58
-90.00
-91.78
-91.72
-90.31
-87.97
-85.36
-83.38
-82.97
-84.74
-88.60
-93.76
-98.82
-102.16
-102.50
-99.20
-92.42
-82.93
-71.81
-60.14
-48.80
-38.43
-29.49
-22.28
-16.94
-13.42
-11.47
-10.66
-10.43
-10.27
-9.83
-9.01
-7.97
-6.98
-6.29
-5.92
-5.65
-5.11
-3.96
-2.06
0.44
3.28
6.20
9.08
12.01
15.17
18.74
22.83
27.39
32.22
37.07
41.63
45.65
48.96
51.44
53.08
53.92
54.02
53.56
52.67
51.41
49.71
47.26
43.72
38.76
32.30
24.47
15.52
5.66
-4.90
-15.94
-26.95
-37.11
-45.40
-50.99
-53.58
-53.57
-51.90
-49.64
-47.55
-45.95
-44.74
-43.69
-42.59
-41.40
-40.12
-38.71
-37.02
-34.87
-32.19
-29.15
-26.11
-23.48
-21.52
-20.20
-19.22
-18.21
-16.86
-15.07
-12.96
-10.77
-8.72
-6.96
-5.52
-4.39
-3.54
-2.94
-2.57
-2.37
-2.30
-2.32
-2.43
-2.59
-2.77
-2.92
-2.98
-2.97
-2.96
-3.05
-3.34
-3.84
-4.55
-5.43
-6.42
-7.50
-8.65
-9.83
-11.00
-12.22
-13.58
-15.21
-17.07
-18.94
-20.38
-20.93
-20.29
-18.41
-15.54
-12.07
-8.46
-5.07
-2.16
0.12
1.72
2.68
3.15
3.37
3.61
4.09
4.93
6.10
7.43
8.63
9.43
9.66
9.37
8.78
8.22
7.96
8.10
8.53
9.05
9.48
9.72
9.77
9.60
9.19
8.51
7.54
6.39
5.24
4.27
3.56
3.08
2.66
2.09
1.17
-0.20
-2.01
-4.08
-6.13
-7.85
-9.00
-9.58
-9.80
-10.00
-10.54
-11.62
-13.35
-15.67
-18.48
-21.56
-24.57
-27.01
-28.31
-27.99
-25.85
-22.16
-17.56
-12.90
-8.91
-5.99
-4.12
-2.96
-2.05
-1.02
0.30
1.91
3.70
5.55
7.34
8.96
10.29
11.15
11.46
11.23
10.60
9.82
9.12
8.69
8.58
8.74
9.09
9.51
9.95
10.36
10.77
11.18
11.53
11.72
11.62
11.13
10.26
9.15
8.04
7.17
6.67
6.49
6.46
6.35
5.99
5.34
4.49
3.60
2.83
2.20
1.63
0.99
0.14
-0.94
-2.22
-3.56
-4.88
-6.13
-7.33
-8.52
-9.76
-11.07
-12.47
-14.04
-15.88
-18.08
-20.64
-23.31
-25.62
-26.98
-26.86
-25.02
-21.66
-17.29
-12.65
-8.38
-4.93
-2.40
-0.67
0.52
1.43
2.30
3.31
4.57
6.13
7.95
9.91
11.83
13.49
14.74
15.50
15.81
15.83
15.75
15.72
15.84
16.10
16.46
16.83
17.14
17.30
17.21
16.79
16.03
14.99
13.81
12.68
11.76
11.16
10.85
10.76
10.74
10.58
10.14
9.29
8.04
6.56
5.13
4.08
3.68
3.99
4.82
5.78
6.38
6.19
5.01
2.90
0.18
-2.69
-5.33
-7.54
-9.42
-11.26
-13.36
-15.79
-18.28
-20.26
-21.07
-20.25
-17.81
-14.12
-9.88
-5.79
-2.37
0.17
1.88
2.97
3.74
4.46
5.35
6.56
8.07
9.74
11.33
12.58
13.31
13.46
13.13
12.49
11.74
11.04
10.52
10.26
10.31
10.63
11.09
11.47
11.52
11.10
10.21
9.02
7.80
6.82
6.17
5.81
5.57
5.22
4.62
3.74
2.68
1.59
0.61
-0.26
-1.10
-2.04
-3.17
-4.48
-5.87
-7.21
-8.44
-9.60
-10.79
-12.14
-13.67
-15.35
-17.14
-19.04
-21.13
-23.52
-26.17
-28.84
-31.06
-32.25
-31.92
-29.89
-26.35
-21.83
-17.04
-12.60
-8.92
-6.12
-4.08
-2.60
-1.40
-0.29
0.92
2.36
4.11
6.13
8.25
10.22
11.75
12.70
13.06
12.99
12.70
12.36
12.06
11.84
11.70
11.67
11.80
12.10
12.51
12.89
13.09
13.01
12.63
12.06
11.44
10.91
10.52
10.23
9.96
9.62
9.16
8.59
7.97
7.34
6.67
5.92
5.04
4.01
2.85
1.62
0.42
-0.77
-1.96
-3.23
-4.60
-6.02
-7.36
-8.53
-9.50
-10.35
-11.23
-12.25
-13.44
-14.77
-16.20
-17.76
-19.56
-21.68
-24.06
-26.34
-27.95
-28.32
-27.10
-24.36
-20.57
-16.36
-12.34
-8.86
-6.03
-3.83
-2.16
-0.92
0.05
0.95
2.08
3.66
5.73
8.15
10.58
12.66
14.11
14.86
14.95
14.60
14.04
13.52
13.22
13.21
13.50
13.97
14.51
14.97
15.27
15.36
15.23
14.87
14.28
13.49
12.58
11.68
10.90
10.33
9.91
9.50
8.93
8.07
6.93
5.59
4.19
2.79
1.39
-0.12
-1.77
-3.55
-5.38
-7.11
-8.66
-10.00
-11.17
-12.22
-13.22
-14.22
-15.23
-16.23
-17.16
-17.95
-18.57
-19.07
-19.65
-20.58
-22.10
-24.23
-26.66
-28.83
-30.07
-29.83
-27.93
-24.56
-20.24
-15.62
-11.29
-7.65
-4.86
-2.88
-1.51
-0.48
0.48
1.62
3.08
4.92
7.03
9.21
11.17
12.67
13.57
13.87
13.76
13.47
13.24
13.24
13.54
14.12
14.88
15.72
16.53
17.22
17.77
18.18
18.54
18.87
19.17
19.36
19.32
19.01
18.47
17.83
17.26
16.84
16.57
16.34
16.03
15.57
15.02
14.48
14.07
13.86
13.84
13.91
14.02
14.14
14.26
14.39
14.48
14.36
13.83
12.68
10.75
8.00
4.49
0.35
-4.23
-9.08
-14.04
-18.96
-23.75
-28.32
-32.56
-36.28
-39.19
-41.04
-41.68
-41.26
-40.20
-39.07
-38.38
-38.38
-39.06
-40.18
-41.37
-42.18
-42.04
-40.31
-36.44
-30.26
-22.13
-13.04
-4.27
3.03
8.25
11.40
13.02
13.90
14.77
16.20
18.57
21.99
26.24
30.84
35.06
38.26
40.01
40.22
39.07
36.86
33.87
30.34
26.43
22.31
18.07
13.61
8.67
2.95
-3.56
-10.41
-16.80
-21.85
-25.03
-26.37
-26.39
-25.79
-25.01
-23.99
-22.31
-19.61
-15.81
-11.09
-5.73
0.08
6.15
12.33
18.31
23.59
27.36
28.83
27.47
23.03
15.50
4.91
-8.20
-22.47
-35.87
-46.64
-53.90
-58.02
-60.51
-63.38
-68.56
-76.50
-85.93
-94.22
-99.16
-99.75
-96.50
-91.26
-86.72
-85.85
-90.09
-98.69
-108.65
-116.65
-120.01
-117.36
-108.81
-92.63
-69.83
-43.51
-19.49
0.27
14.90
23.22
24.34
18.89
9.34
-1.03
-8.57
-10.42
-4.99
7.16
24.28
44.49
66.31
88.64
110.17
129.83
146.83
160.90
171.59
178.53
181.55
180.67
175.91
167.11
154.44
138.58
120.84
102.50
84.61
67.95
52.96
39.81
28.39
18.64
10.52
4.03
-1.12
-5.41
-9.32
-13.25
-17.44
-21.96
-26.71
-31.36
-35.34
-38.04
-38.92
-37.72
-34.58
-30.07
-24.97
-20.03
-15.74
-12.27
-9.57
-7.52
-6.00
-4.90
-4.09
-3.36
-2.58
-1.71
-0.90
-0.42
-0.51
-1.28
-2.66
-4.42
-6.33
-8.15
-9.66
-10.62
-10.88
-10.39
-9.34
-8.03
-6.83
-5.97
-5.45
-5.11
-4.69
-4.07
-3.29
-2.54
-2.00
-1.70
-1.51
-1.20
-0.59
0.35
1.42
2.38
2.99
3.23
3.23
3.22
3.39
3.77
4.21
4.48
4.42
4.00
3.35
2.68
2.07
1.50
0.81
-0.17
-1.46
-3.02
-4.84
-7.09
-10.12
-14.28
-19.75
-26.29
-33.28
-39.86
-45.22
-48.74
-50.13
-49.30
-46.34
-41.48
-35.13
-27.92
-20.62
-13.94
-8.32
-3.68
0.57
5.30
11.24
18.64
26.97
35.21
42.39
48.15
53.06
58.34
65.26
74.32
84.89
95.23
103.18
106.88
105.52
99.72
91.39
83.35
78.59
79.42
86.75
99.57
115.04
129.02
137.21
136.36
125.27
105.21
79.39
51.82
25.91
3.34
-16.17
-34.17
-52.29
-71.22
-90.42
-108.69
-124.95
-138.82
-150.35
-159.23
-164.22
-163.26
-154.32
-136.56
-110.82
-79.11
-43.39
-4.75
36.42
79.12
120.55
155.89
179.88
189.06
183.56
167.14
145.31
122.94
102.62
84.51
67.56
50.91
34.70
19.82
7.25
-2.48
-9.30
-13.37
-14.85
-13.92
-10.99
-6.69
-1.81
2.77
6.17
7.47
5.91
1.20
-6.04
-14.23
-21.29
-25.47
-26.13
-24.02
-20.91
-18.74
-18.82
-21.36
-25.65
-30.57
-35.15
-38.89
-41.80
-44.14
-46.19
-48.04
-49.63
-50.82
-51.49
-51.57
-51.03
-49.86
-48.08
-45.75
-42.98
-39.93
-36.79
-33.70
-30.77
-28.06
-25.58
-23.30
-21.12
-18.94
-16.66
-14.27
-11.86
-9.65
-7.86
-6.67
-6.14
-6.17
-6.60
-7.18
-7.72
-8.12
-8.35
-8.48
-8.67
-9.03
-9.68
-10.68
-11.99
-13.54
-15.20
-16.87
-18.47
-20.03
-21.62
-23.37
-25.37
-27.72
-30.47
-33.63
-37.07
-40.51
-43.45
-45.21
-45.15
-42.85
-38.37
-32.23
-25.28
-18.41
-12.24
-7.01
-2.64
1.08
4.31
7.11
9.50
11.56
13.50
15.57
17.87
20.29
22.53
24.21
25.12
25.34
25.16
24.94
24.95
25.20
25.51
25.67
25.58
25.26
24.86
24.51
24.23
23.93
23.47
22.78
21.88
20.88
19.87
18.93
18.09
17.32
16.62
16.01
15.44
14.88
14.22
13.39
12.38
11.24
10.07
8.93
7.80
6.60
5.20
3.55
1.65
-0.42
-2.52
-4.49
-6.18
-7.53
-8.60
-9.54
-10.57
-11.86
-13.44
-15.23
-17.05
-18.80
-20.50
-22.27
-24.24
-26.48
-29.00
-31.72
-34.58
-37.43
-40.01
-41.87
-42.46
-41.34
-38.33
-33.67
-27.96
-21.92
-16.23
-11.35
-7.44
-4.46
-2.21
-0.44
1.12
2.72
4.57
6.73
9.16
11.67
13.96
15.69
16.63
16.69
16.02
14.93
13.80
13.00
12.70
12.90
13.45
14.12
14.72
15.12
15.28
15.24
15.06
14.81
14.54
14.26
13.99
13.71
13.39
12.98
12.41
11.67
10.75
9.71
8.65
7.66
6.78
6.01
5.24
4.35
3.24
1.90
0.39
-1.15
-2.56
-3.77
-4.80
-5.73
-6.71
-7.88
-9.28
-10.94
-12.82
-14.82
-16.87
-18.90
-20.91
-22.99
-25.24
-27.78
-30.63
-33.62
-36.40
-38.41
-39.09
-38.04
-35.16
-30.72
-25.27
-19.54
-14.15
-9.56
-5.95
-3.27
-1.29
0.26
1.67
3.16
4.87
6.84
8.98
11.12
13.03
14.52
15.49
16.01
16.19
16.24
16.33
16.53
16.83
17.14
17.38
17.49
17.46
17.33
17.13
16.90
16.68
16.45
16.19
15.81
15.24
14.42
13.35
12.14
10.91
9.79
8.83
8.02
7.33
6.73
6.22
5.83
5.51
5.21
4.80
4.17
3.26
2.09
0.70
-0.81
-2.36
-3.83
-5.14
-6.22
-7.12
-7.98
-9.02
-10.40
-12.12
-14.03
-15.92
-17.60
-19.01
-20.22
-21.42
-22.81
-24.62
-27.02
-30.07
-33.63
-37.25
-40.22
-41.73
-41.19
-38.45
-33.89
-28.25
-22.39
-16.97
-12.39
-8.74
-5.93
-3.81
-2.17
-0.79
0.56
2.06
3.87
6.01
8.38
10.76
12.88
14.50
15.49
15.86
15.79
15.53
15.30
15.26
15.46
15.82
16.24
16.62
16.88
17.00
16.99
16.85
16.56
16.06
15.30
14.32
13.24
12.25
11.51
11.10
10.96
10.93
10.85
10.59
10.14
9.57
8.95
8.36
7.81
7.27
6.70
6.09
5.44
4.79
4.13
3.42
2.57
1.51
0.21
-1.26
-2.74
-4.09
-5.27
-6.35
-7.49
-8.88
-10.58
-12.58
-14.74
-16.93
-19.05
-21.08
-23.05
-25.11
-27.43
-30.24
-33.62
-37.39
-41.03
-43.72
-44.63
-43.25
-39.61
-34.32
-28.27
-22.33
-17.07
-12.68
-9.12
-6.21
-3.85
-1.91
-0.23
1.45
3.40
5.78
8.56
11.53
14.33
16.66
18.33
19.35
19.88
20.17
20.53
21.18
22.19
23.48
24.84
26.01
26.80
27.12
26.94
26.27
25.13
23.53
21.53
19.28
17.00
14.95
13.35
12.26
11.64
11.34
11.21
11.16
11.17
11.31
11.69
12.38
13.42
14.77
16.33
17.91
19.33
20.40
21.00
21.07
20.67
19.88
18.79
17.45
15.78
13.65
10.91
7.50
3.56
-0.61
-4.66
-8.32
-11.49
-14.28
-16.92
-19.68
-22.80
-26.47
-30.81
-35.78
-41.12
-46.23
-50.26
-52.36
-51.97
-49.07
-44.24
-38.42
-32.52
-27.21
-22.73
-18.99
-15.79
-12.93
-10.31
-7.88
-5.52
-3.11
-0.52
2.26
5.11
7.70
9.68
10.72
10.74
9.92
8.72
7.63
7.05
7.08
7.55
8.19
8.76
9.21
9.63
10.10
10.63
11.05
11.19
10.96
10.46
9.87
9.41
9.15
8.97
8.74
8.36
7.91
7.60
7.67
8.29
9.42
10.82
12.20
13.28
13.93
14.17
14.10
13.78
13.19
12.30
11.08
9.65
8.20
6.89
5.81
4.86
3.83
2.56
0.96
-0.90
-2.88
-4.88
-6.87
-8.84
-10.85
-12.92
-15.09
-17.43
-20.05
-23.12
-26.77
-31.03
-35.73
-40.53
-44.86
-48.06
-49.47
-48.67
-45.64
-40.76
-34.80
-28.61
-22.87
-17.90
-13.73
-10.17
-7.02
-4.09
-1.22
1.78
5.10
8.82
12.81
16.68
19.94
22.26
23.59
24.20
24.53
24.96
25.66
26.64
27.80
29.03
30.33
31.65
32.92
34.00
34.77
35.19
35.31
35.28
35.20
35.14
35.09
35.00
34.77
34.31
33.51
32.26
30.55
28.44
26.13
23.83
21.76
20.00
18.53
17.21
15.91
14.48
12.89
11.10
9.10
6.92
4.58
2.10
-0.44
-2.96
-5.36
-7.56
-9.54
-11.36
-13.19
-15.20
-17.50
-20.11
-22.95
-25.86
-28.74
-31.53
-34.27
-37.00
-39.79
-42.73
-45.86
-49.10
-52.12
-54.34
-55.01
-53.48
-49.51
-43.38
-35.87
-28.00
-20.67
-14.43
-9.51
-5.83
-3.24
-1.50
-0.32
0.75
2.14
4.18
6.90
9.95
12.76
14.77
15.65
15.41
14.39
13.04
11.84
11.09
10.90
11.22
11.80
12.31
12.41
11.89
10.75
9.28
7.92
7.13
7.14
7.93
9.17
10.44
11.34
11.62
11.25
10.36
9.15
7.82
6.56
5.50
4.73
4.27
4.12
4.20
4.40
4.61
4.71
4.63
4.30
3.69
2.82
1.74
0.54
-0.64
-1.69
-2.57
-3.32
-4.10
-5.06
-6.35
-7.96
-9.82
-11.76
-13.62
-15.27
-16.68
-17.89
-19.08
-20.51
-22.46
-25.17
-28.66
-32.68
-36.68
-39.92
-41.64
-41.28
-38.67
-34.09
-28.14
-21.63
-15.28
-9.64
-4.95
-1.17
1.91
4.57
7.12
9.73
12.54
15.52
18.54
21.36
23.71
25.36
26.25
26.46
26.26
25.95
25.80
25.94
26.37
26.99
27.63
28.17
28.51
28.61
28.47
28.11
27.54
26.74
25.77
24.69
23.60
22.59
21.68
20.83
19.98
19.04
17.95
16.76
15.54
14.36
13.32
12.43
11.72
11.17
10.72
10.31
9.82
9.15
8.25
7.18
6.05
5.04
4.24
3.67
3.24
2.79
2.21
1.40
0.38
-0.82
-2.13
-3.48
-4.85
-6.22
-7.62
-9.07
-10.61
-12.26
-14.03
-15.86
-17.67
-19.37
-20.94
-22.46
-24.16
-26.31
-29.11
-32.53
-36.19
-39.47
-41.65
-42.20
-40.91
-37.92
-33.67
-28.69
-23.43
-18.30
-13.56
-9.38
-5.86
-2.99
-0.61
1.50
3.62
5.96
8.59
11.43
14.29
16.93
19.11
20.66
21.54
21.79
21.55
21.04
20.51
20.15
20.11
20.38
20.81
21.24
21.47
21.42
21.12
20.69
20.23
19.76
19.27
18.68
17.98
17.21
16.46
15.82
15.27
14.77
14.21
13.55
12.82
12.11
11.50
11.03
10.68
10.36
9.96
9.42
8.71
7.87
6.97
6.08
5.21
4.34
3.42
2.41
1.31
0.18
-0.93
-1.99
-3.06
-4.24
-5.65
-7.31
-9.15
-11.01
-12.72
-14.17
-15.41
-16.60
-18.01
-19.88
-22.37
-25.41
-28.75
-32.00
-34.65
-36.24
-36.42
-34.99
-31.97
-27.59
-22.29
-16.65
-11.31
-6.79
-3.37
-1.02
0.57
1.87
3.34
5.27
7.70
10.47
13.31
15.92
18.11
19.79
20.93
21.60
21.87
21.88
21.77
21.72
21.79
22.00
22.22
22.24
21.89
21.13
20.04
18.78
17.50
16.26
14.99
13.58
11.99
10.25
8.50
6.92
5.62
4.61
3.87
3.31
2.85
2.37
1.80
1.07
0.19
-0.73
-1.55
-2.15
-2.54
-2.86
-3.29
-3.99
-5.00
-6.23
-7.54
-8.83
-10.09
-11.40
-12.87
-14.58
-16.48
-18.49
-20.48
-22.39
-24.22
-26.06
-28.02
-30.21
-32.68
-35.40
-38.29
-41.14
-43.65
-45.39
-45.92
-44.89
-42.15
-37.94
-32.74
-27.24
-22.06
-17.62
-14.04
-11.21
-8.86
-6.73
-4.56
-2.19
0.49
3.52
6.82
10.16
13.27
15.84
17.68
18.76
19.19
19.20
19.10
19.08
19.28
19.67
20.15
20.58
20.84
20.90
20.76
20.52
20.22
19.93
19.68
19.46
19.23
18.94
18.49
17.80
16.86
15.71
14.47
13.29
12.28
11.47
10.81
10.20
9.51
8.67
7.68
6.59
5.52
4.56
3.75
2.98
2.13
1.05
-0.34
-1.96
-3.66
-5.23
-6.55
-7.60
-8.50
-9.45
-10.64
-12.23
-14.20
-16.45
-18.77
-20.95
-22.91
-24.61
-26.16
-27.73
-29.50
-31.64
-34.25
-37.32
-40.62
-43.64
-45.71
-46.13
-44.42
-40.53
-34.89
-28.28
-21.58
-15.53
-10.55
-6.75
-4.01
-2.02
-0.39
1.28
3.34
6.01
9.27
12.89
16.45
19.45
21.52
22.57
22.76
22.51
22.24
22.27
22.69
23.41
24.21
24.91
25.37
25.56
25.52
25.33
25.07
24.82
24.65
24.53
24.35
23.97
23.27
22.21
20.87
19.43
18.06
16.87
15.88
15.05
14.32
13.62
12.88
12.04
11.04
9.88
8.62
7.37
6.28
5.43
4.80
4.29
3.71
2.94
1.93
0.79
-0.32
-1.25
-1.96
-2.55
-3.21
-4.15
-5.48
-7.17
-9.01
-10.79
-12.36
-13.72
-15.01
-16.43
-18.16
-20.29
-22.85
-25.78
-28.96
-32.18
-35.00
-36.88
-37.19
-35.54
-31.89
-26.72
-20.86
-15.24
-10.57
-7.11
-4.73
-3.05
-1.67
-0.30
1.23
2.97
4.95
7.17
9.55
11.84
13.73
14.92
15.28
14.94
14.20
13.46
13.01
12.98
13.32
13.93
14.70
15.58
16.53
17.48
18.27
18.75
18.81
18.46
17.86
17.25
16.83
16.71
16.85
17.11
17.29
17.25
16.91
16.30
15.48
14.53
13.48
12.35
11.13
9.84
8.49
7.13
5.75
4.32
2.77
1.11
-0.62
-2.25
-3.61
-4.57
-5.19
-5.64
-6.23
-7.20
-8.68
-10.61
-12.83
-15.18
-17.54
-19.93
-22.36
-24.88
-27.47
-30.11
-32.78
-35.41
-37.81
-39.61
-40.31
-39.41
-36.63
-32.09
-26.37
-20.28
-14.67
-10.06
-6.65
-4.26
-2.52
-1.05
0.47
2.27
4.45
7.06
10.00
13.03
15.81
18.00
19.38
19.92
19.82
19.38
18.92
18.68
18.75
19.10
19.60
20.07
20.34
20.27
19.85
19.14
18.35
17.64
17.15
16.83
16.51
16.01
15.20
14.08
12.80
11.50
10.31
9.28
8.44
7.81
7.36
7.05
6.77
6.39
5.81
5.04
4.16
3.31
2.59
1.98
1.40
0.72
-0.14
-1.19
-2.37
-3.61
-4.84
-5.99
-7.03
-7.90
-8.60
-9.15
-9.65
-10.21
-10.93
-11.87
-13.04
-14.39
-15.90
-17.52
-19.26
-21.15
-23.26
-25.65
-28.34
-31.22
-33.98
-36.09
-36.95
-36.05
-33.22
-28.70
-23.11
-17.25
-11.83
-7.29
-3.75
-1.10
0.86
2.36
3.60
4.79
6.14
7.79
9.82
12.10
14.40
16.38
17.78
18.50
18.60
18.28
17.83
17.46
17.33
17.46
17.77
18.12
18.39
18.49
18.38
18.06
17.57
16.92
16.17
15.33
14.46
13.59
12.79
12.13
11.63
11.30
11.11
10.97
10.79
10.48
10.02
9.39
8.65
7.82
6.98
6.22
5.61
5.21
5.05
5.06
5.09
4.98
4.61
3.98
3.17
2.32
1.51
0.76
0.01
-0.84
-1.81
-2.91
-4.12
-5.47
-7.01
-8.80
-10.86
-13.08
-15.38
-17.69
-20.09
-22.69
-25.57
-28.53
-31.08
-32.58
-32.46
-30.47
-26.85
-22.24
-17.42
-13.04
-9.47
-6.75
-4.67
-3.01
-1.55
-0.21
1.07
2.31
3.55
4.84
6.20
7.56
8.76
9.65
10.09
10.06
9.73
9.30
8.97
8.86
8.96
9.17
9.41
9.64
9.83
9.98
10.03
9.94
9.66
9.25
8.77
8.32
7.92
7.50
6.95
6.24
5.43
4.67
4.10
3.78
3.66
3.59
3.46
3.18
2.79
2.39
2.04
1.74
1.42
0.93
0.16
-0.93
-2.25
-3.63
-4.89
-5.90
-6.71
-7.48
-8.42
-9.67
-11.21
-12.90
-14.57
-16.09
-17.51
-18.94
-20.56
-22.45
-24.65
-27.11
-29.80
-32.60
-35.32
-37.58
-38.84
-38.55
-36.37
-32.34
-26.97
-21.13
-15.70
-11.34
-8.27
-6.28
-4.91
-3.69
-2.29
-0.59
1.34
3.45
5.65
7.85
9.94
11.75
13.09
13.84
14.00
13.73
13.33
13.09
13.23
13.80
14.63
15.45
15.98
16.07
15.75
15.22
14.72
14.44
14.38
14.43
14.40
14.17
13.70
13.01
12.15
11.16
10.07
8.94
7.88
6.98
6.27
5.71
5.22
4.72
4.17
3.62
3.10
2.61
2.03
1.24
0.14
-1.23
-2.72
-4.13
-5.28
-6.13
-6.80
-7.48
-8.33
-9.44
-10.75
-12.14
-13.53
-14.93
-16.42
-18.07
-19.94
-21.98
-24.16
-26.53
-29.18
-32.16
-35.34
-38.31
-40.38
-40.86
-39.28
-35.68
-30.56
-24.80
-19.27
-14.63
-11.13
-8.63
-6.80
-5.28
-3.78
-2.17
-0.36
1.72
4.13
6.91
9.93
12.93
15.55
17.43
18.43
18.67
18.46
18.21
18.24
18.67
19.43
20.29
21.01
21.41
21.42
21.12
20.64
20.14
19.67
19.20
18.62
17.82
16.73
15.43
14.10
12.89
11.90
11.12
10.44
9.78
9.09
8.42
7.82
7.33
6.93
6.55
6.09
5.46
4.64
3.67
2.66
1.72
0.93
0.27
-0.33
-1.02
-1.91
-3.04
-4.37
-5.83
-7.34
-8.85
-10.39
-11.97
-13.56
-15.15
-16.70
-18.29
-20.11
-22.36
-25.14
-28.27
-31.26
-33.44
-34.11
-32.89
-29.80
-25.31
-20.11
-14.93
-10.34
-6.65
-3.97
-2.18
-1.01
-0.08
1.05
2.73
5.13
8.14
11.43
14.50
16.91
18.38
18.87
18.64
18.08
17.58
17.42
17.70
18.31
19.09
19.86
20.52
21.02
21.36
21.49
21.39
21.03
20.47
19.80
19.17
18.65
18.25
17.88
17.46
16.90
16.21
15.46
14.65
13.78
12.78
11.57
10.14
8.55
6.92
5.42
4.14
3.12
2.24
1.35
0.21
-1.34
-3.38
-5.84
-8.53
-11.19
-13.59
-15.63
-17.37
-18.95
-20.60
-22.50
-24.80
-27.53
-30.59
-33.64
-36.21
-37.65
-37.45
-35.31
-31.38
-26.20
-20.51
-15.07
-10.42
-6.80
-4.13
-2.17
-0.62
0.85
2.48
4.46
6.85
9.55
12.35
14.97
17.10
18.57
19.37
19.58
19.41
19.06
18.71
18.49
18.45
18.60
18.88
19.18
19.34
19.25
18.85
18.15
17.25
16.25
15.28
14.43
13.75
13.22
12.77
12.30
11.73
11.02
10.21
9.34
8.50
7.74
7.06
6.41
5.74
5.03
4.30
3.57
2.85
2.13
1.33
0.43
-0.58
-1.64
-2.63
-3.48
-4.18
-4.77
-5.36
-6.08
-7.06
-8.41
-10.16
-12.27
-14.58
-16.91
-19.06
-20.93
-22.55
-24.06
-25.68
-27.64
-30.07
-32.94
-35.99
-38.71
-40.41
-40.43
-38.33
-34.12
-28.37
-21.96
-15.88
-10.85
-7.19
-4.75
-3.14
-1.87
-0.55
1.07
3.10
5.56
8.34
11.28
14.08
16.46
18.13
18.97
19.08
18.68
18.10
17.58
17.28
17.16
17.14
17.09
16.96
16.80
16.68
16.67
16.80
17.01
17.23
17.36
17.33
17.10
16.68
16.09
15.39
14.63
13.85
13.06
12.23
11.33
10.32
9.17
7.92
6.64
5.43
4.37
3.52
2.88
2.40
2.00
1.55
0.95
0.10
-1.02
-2.39
-3.85
-5.28
-6.52
-7.52
-8.28
-8.89
-9.45
-10.06
-10.83
-11.84
-13.17
-14.81
-16.78
-19.01
-21.46
-24.12
-26.98
-29.90
-32.61
-34.60
-35.32
-34.31
-31.45
-26.96
-21.48
-15.82
-10.73
-6.68
-3.75
-1.68
-0.07
1.45
3.10
4.99
7.16
9.65
12.45
15.43
18.30
20.60
21.96
22.21
21.53
20.43
19.46
19.08
19.41
20.29
21.39
22.36
22.96
23.10
22.83
22.27
21.55
20.83
20.27
19.99
20.10
20.56
21.20
21.70
21.70
20.95
19.43
17.38
15.23
13.35
11.97
11.08
10.48
9.93
9.26
8.44
7.57
6.77
6.09
5.54
5.02
4.39
3.54
2.36
0.82
-1.05
-3.18
-5.45
-7.75
-9.98
-12.08
-14.06
-15.96
-17.89
-20.01
-22.44
-25.20
-28.16
-30.92
-32.93
-33.61
-32.57
-29.78
-25.65
-20.89
-16.34
-12.64
-10.05
-8.47
-7.55
-6.88
-6.15
-5.17
-3.87
-2.24
-0.33
1.77
3.93
5.96
7.64
8.82
9.46
9.62
9.46
9.18
8.94
8.86
9.01
9.40
9.93
10.51
10.96
11.14
10.96
10.43
9.67
8.82
8.01
7.29
6.65
6.06
5.47
4.91
4.43
4.09
3.85
3.64
3.33
2.82
2.08
1.15
0.16
-0.78
-1.58
-2.23
-2.80
-3.38
-4.05
-4.85
-5.75
-6.69
-7.64
-8.63
-9.73
-11.03
-12.58
-14.35
-16.23
-18.05
-19.70
-21.11
-22.36
-23.57
-24.90
-26.51
-28.52
-30.93
-33.61
-36.22
-38.24
-39.05
-38.13
-35.24
-30.59
-24.78
-18.66
-13.09
-8.66
-5.62
-3.79
-2.77
-2.06
-1.22
0.03
1.80
4.05
6.65
9.38
11.98
14.20
15.82
16.78
17.07
16.86
16.37
15.81
15.38
15.16
15.11
15.14
15.14
15.04
14.86
14.70
14.62
14.60
14.53
14.26
13.73
12.99
12.19
11.47
10.88
10.38
9.90
9.40
8.93
8.57
8.32
8.11
7.80
7.25
6.47
5.59
4.80
4.26
3.98
3.87
3.77
3.55
3.12
2.47
1.62
0.58
-0.61
-1.90
-3.17
-4.34
-5.37
-6.31
-7.27
-8.36
-9.63
-11.04
-12.50
-13.91
-15.28
-16.71
-18.34
-20.36
-22.87
-25.81
-28.95
-31.83
-33.87
-34.49
-33.30
-30.25
-25.72
-20.38
-15.01
-10.30
-6.61
-3.99
-2.22
-0.94
0.21
1.51
3.11
5.08
7.40
10.00
12.73
15.37
17.61
19.17
19.87
19.74
19.01
18.03
17.17
16.68
16.63
16.93
17.42
17.90
18.25
18.39
18.30
17.97
17.44
16.79
16.14
15.61
15.31
15.23
15.34
15.47
15.47
15.21
14.66
13.91
13.07
12.27
11.58
10.97
10.37
9.69
8.85
7.82
6.60
5.24
3.80
2.36
1.02
-0.21
-1.37
-2.56
-3.92
-5.48
-7.21
-8.97
-10.63
-12.08
-13.33
-14.52
-15.82
-17.45
-19.58
-22.31
-25.58
-29.19
-32.76
-35.78
-37.72
-38.12
-36.75
-33.63
-29.11
-23.80
-18.45
-13.73
-10.10
-7.68
-6.26
-5.43
-4.70
-3.65
-2.04
0.22
2.98
5.95
8.73
10.91
12.23
12.65
12.34
11.68
11.02
10.65
10.66
11.01
11.61
12.31
13.02
13.63
14.05
14.25
14.21
13.97
13.61
13.21
12.83
12.46
12.08
11.64
11.12
10.54
9.92
9.31
8.73
8.20
7.70
7.24
6.80
6.37
5.92
5.43
4.82
4.03
3.01
1.73
0.24
-1.37
-2.95
-4.37
-5.52
-6.42
-7.20
-8.06
-9.19
-10.72
-12.66
-14.88
-17.19
-19.35
-21.26
-22.88
-24.33
-25.81
-27.52
-29.67
-32.32
-35.40
-38.59
-41.38
-43.12
-43.17
-41.15
-37.07
-31.39
-24.87
-18.31
-12.40
-7.54
-3.85
-1.18
0.75
2.38
4.15
6.48
9.58
13.41
17.64
21.73
25.13
27.43
28.55
28.71
28.29
27.75
27.38
27.28
27.35
27.41
27.28
26.90
26.26
25.42
24.41
23.25
21.96
20.52
18.96
17.32
15.69
14.19
12.91
11.96
11.33
10.90
10.45
9.76
8.71
7.32
5.73
4.19
2.91
2.03
1.58
1.50
1.64
1.78
1.70
1.19
0.18
-1.26
-2.96
-4.69
-6.26
-7.60
-8.76
-9.91
-11.20
-12.73
-14.46
-16.26
-17.98
-19.52
-20.94
-22.41
-24.13
-26.30
-28.97
-32.13
-35.60
-39.08
-42.16
-44.26
-44.84
-43.46
-40.04
-34.93
-28.82
-22.58
-17.00
-12.60
-9.53
-7.58
-6.34
-5.33
-4.06
-2.18
0.49
3.92
7.88
11.97
15.74
18.80
20.89
21.96
22.18
21.88
21.47
21.27
21.45
21.96
22.65
23.31
23.79
24.08
24.23
24.31
24.31
24.17
23.81
23.19
22.39
21.55
20.75
20.03
19.37
18.71
18.01
17.29
16.56
15.77
14.78
13.48
11.79
9.82
7.79
5.91
4.30
2.88
1.44
-0.27
-2.42
-5.01
-7.91
-10.93
-13.86
-16.57
-19.03
-21.28
-23.49
-25.94
-28.95
-32.72
-37.22
-42.07
-46.51
-49.58
-50.43
-48.64
-44.34
-38.22
-31.28
-24.53
-18.73
-14.19
-10.83
-8.34
-6.24
-4.15
-1.73
1.14
4.47
8.15
11.95
15.56
18.66
21.00
22.40
22.88
22.68
22.17
21.76
21.76
22.23
23.02
23.82
24.38
24.56
24.44
24.19
23.97
23.85
23.78
23.63
23.29
22.68
21.80
20.69
19.40
17.98
16.49
15.00
13.57
12.25
11.03
9.85
8.65
7.39
6.04
4.64
3.19
1.66
-0.02
-1.91
-4.00
-6.20
-8.43
-10.64
-12.91
-15.36
-18.07
-20.98
-23.86
-26.45
-28.59
-30.34
-32.02
-34.07
-36.86
-40.53
-44.86
-49.27
-52.90
-54.83
-54.34
-51.13
-45.42
-37.93
-29.67
-21.62
-14.52
-8.69
-4.13
-0.55
2.40
5.12
7.96
11.16
14.82
18.84
22.93
26.69
29.71
31.70
32.58
32.50
31.79
30.83
30.02
29.60
29.66
30.11
30.72
31.25
31.49
31.35
30.86
30.10
29.20
28.20
27.15
26.04
24.91
23.81
22.76
21.75
20.72
19.60
18.38
17.12
15.94
14.96
14.19
13.54
12.87
12.06
11.07
9.94
8.72
7.43
6.03
4.47
2.74
0.88
-0.99
-2.74
-4.30
-5.72
-7.15
-8.75
-10.62
-12.72
-14.90
-16.94
-18.68
-20.13
-21.50
-23.15
-25.44
-28.61
-32.66
-37.25
-41.76
-45.42
-47.44
-47.25
-44.63
-39.80
-33.39
-26.28
-19.37
-13.36
-8.61
-5.09
-2.48
-0.35
1.73
4.06
6.81
10.02
13.63
17.45
21.21
24.52
27.04
28.54
29.05
28.83
28.27
27.81
27.69
28.01
28.63
29.36
29.99
30.31
30.25
29.80
29.03
28.07
27.08
26.14
25.27
24.43
23.53
22.51
21.38
20.20
19.06
18.00
17.03
16.14
15.26
14.27
13.10
11.68
10.01
8.18
6.29
4.45
2.73
1.14
-0.39
-1.97
-3.72
-5.77
-8.17
-10.91
-13.83
-16.72
-19.34
-21.54
-23.42
-25.29
-27.59
-30.69
-34.66
-39.09
-43.14
-45.77
-46.10
-43.80
-39.18
-33.12
-26.71
-20.83
-15.96
-12.09
-8.97
-6.25
-3.70
-1.23
1.26
3.89
6.77
9.89
13.04
15.83
17.85
18.87
18.97
18.52
17.99
17.79
18.07
18.74
19.56
20.27
20.72
20.85
20.69
20.31
19.78
19.14
18.42
17.60
16.67
15.63
14.56
13.58
12.80
12.27
11.90
11.53
10.99
10.21
9.23
8.16
7.17
6.32
5.62
5.04
4.48
3.87
3.16
2.34
1.44
0.53
-0.35
-1.20
-2.05
-2.96
-3.96
-4.99
-5.96
-6.71
-7.21
-7.49
-7.70
-8.02
-8.59
-9.56
-11.06
-13.22
-16.12
-19.63
-23.32
-26.48
-28.21
-27.81
-25.02
-20.18
-14.14
-7.97
-2.56
1.57
4.37
6.10
7.15
7.82
8.25
8.52
8.64
8.63
8.55
8.44
8.36
8.35
8.41
8.51
8.49
8.11
7.10
5.34
2.95
0.42
-1.55
-2.38
-1.93
-0.73
0.17
-0.46
-3.45
-8.78
-15.51
-22.15
-27.21
-29.67
-29.27
-26.52
-22.59
-19.16
-18.16
-21.36
-29.74
-42.94
-59.00
-74.81
-87.06
-93.54
-93.81
-89.21
-81.91
-73.76
-65.61
-57.26
-48.07
-37.62
-26.04
-13.77
-1.14
11.96
26.05
41.64
58.70
76.49
93.77
109.28
122.32
133.00
142.07
150.44
158.61
166.17
171.66
172.72
166.69
151.53
126.65
93.67
56.40
20.08
-10.06
-30.47
-40.40
-42.04
-39.45
-36.63
-35.79
-36.66
-37.14
-35.01
-29.57
-22.28
-16.03
-13.54
-15.90
-22.06
-29.53
-35.82
-39.64
-41.25
-41.93
-42.96
-44.76
-46.79
-48.03
-47.68
-45.71
-42.82
-40.15
-38.71
-38.90
-40.36
-42.14
-43.13
-42.54
-40.18
-36.49
-32.32
-28.48
-25.48
-23.32
-21.67
-20.05
-18.07
-15.70
-13.18
-10.89
-9.13
-7.82
-6.53
-4.68
-1.82
1.99
6.18
9.77
11.80
11.61
9.09
4.63
-1.03
-7.13
-12.90
-17.72
-21.04
-22.41
-21.59
-18.61
-13.83
-7.89
-1.50
4.69
10.27
15.12
19.27
22.83
25.88
28.41
30.47
32.24
34.01
36.06
38.48
41.05
43.35
44.91
45.51
45.28
44.63
44.00
43.56
43.09
42.05
39.94
36.56
32.14
27.25
22.50
18.20
14.26
10.24
5.65
0.29
-5.60
-11.44
-16.55
-20.43
-22.88
-23.95
-23.79
-22.61
-20.66
-18.31
-16.08
-14.47
-13.82
-14.19
-15.32
-16.93
-18.81
-20.96
-23.52
-26.57
-29.98
-33.44
-36.60
-39.22
-41.31
-43.15
-45.19
-47.91
-51.59
-56.29
-61.69
-67.19
-71.94
-75.04
-75.82
-73.92
-69.46
-62.96
-55.25
-47.29
-39.96
-33.90
-29.42
-26.44
-24.58
-23.25
-21.81
-19.78
-16.96
-13.48
-9.79
-6.45
-3.92
-2.43
-1.85
-1.81
-1.82
-1.46
-0.50
1.07
3.09
5.39
7.78
10.14
12.37
14.35
15.94
17.03
17.58
17.65
17.43
17.11
16.87
16.76
16.72
16.59
16.21
15.48
14.44
13.17
11.77
10.32
8.79
7.20
5.52
3.77
1.98
0.11
-1.90
-4.11
-6.55
-9.16
-11.82
-14.42
-16.98
-19.58
-22.39
-25.60
-29.38
-33.89
-39.17
-45.00
-50.85
-55.75
-58.59
-58.40
-54.76
-48.07
-39.37
-30.04
-21.29
-13.83
-7.79
-2.88
1.29
5.11
8.81
12.59
16.58
20.88
25.45
30.09
34.47
38.25
41.21
43.31
44.72
45.68
46.39
46.94
47.32
47.51
47.53
47.44
47.31
47.19
46.95
46.42
45.45
43.98
42.11
40.06
38.05
36.20
34.50
32.87
31.20
29.46
27.63
25.76
23.90
22.10
20.39
18.80
17.34
16.00
14.72
13.42
12.03
10.50
8.85
7.13
5.43
3.77
2.11
0.37
-1.63
-3.99
-6.75
-9.84
-13.08
-16.28
-19.31
-22.14
-24.87
-27.67
-30.78
-34.39
-38.63
-43.39
-48.25
-52.41
-54.91
-54.87
-51.84
-46.01
-38.13
-29.28
-20.55
-12.72
-6.17
-0.87
3.39
6.96
10.16
13.26
16.46
19.85
23.41
26.95
30.20
32.85
34.63
35.43
35.35
34.63
33.66
32.76
32.18
31.99
32.11
32.38
32.57
32.54
32.15
31.39
30.28
28.92
27.43
25.92
24.45
22.99
21.47
19.79
17.88
15.82
13.74
11.87
10.37
9.26
8.42
7.64
6.69
5.49
4.04
2.44
0.81
-0.77
-2.24
-3.59
-4.84
-6.03
-7.22
-8.48
-9.83
-11.14
-12.22
-12.82
-12.83
-12.31
-11.58
-11.05
-11.10
-11.94
-13.51
-15.48
-17.25
-18.09
-17.26
-14.29
-9.12
-2.29
5.24
12.37
18.20
22.31
24.78
25.94
26.19
25.80
25.00
24.05
23.25
22.89
23.10
23.66
24.11
23.90
22.67
20.34
17.20
13.72
10.42
7.76
6.04
5.36
5.60
6.42
7.38
8.04
8.16
7.73
6.96
6.12
5.42
4.94
4.63
4.40
4.18
3.93
3.68
3.35
2.88
2.19
1.18
-0.12
-1.62
-3.13
-4.46
-5.46
-6.11
-6.49
-6.78
-7.16
-7.78
-8.70
-9.92
-11.45
-13.33
-15.62
-18.32
-21.31
-24.35
-27.26
-29.94
-32.44
-34.89
-37.24
-39.11
-39.77
-38.40
-34.44
-27.90
-19.50
-10.39
-1.83
5.23
10.35
13.57
15.27
15.92
16.02
16.04
16.40
17.44
19.25
21.67
24.27
26.53
28.08
28.81
28.93
28.82
28.78
28.97
29.34
29.77
30.13
30.39
30.52
30.44
29.93
28.71
26.53
23.28
19.07
14.19
9.01
3.85
-1.04
-5.49
-9.40
-12.75
-15.75
-18.85
-22.62
-27.51
-33.54
-40.22
-46.68
-52.03
-55.75
-57.87
-58.79
-58.99
-58.77
-58.23
-57.43
-56.61
-56.25
-56.91
-58.92
-62.14
-65.90
-69.22
-71.14
-71.07
-68.97
-65.36
-61.07
-56.77
-52.66
-48.21
-42.41
-34.08
-22.43
-7.49
9.58
26.64
41.04
50.44
53.63
51.03
44.43
36.27
28.56
22.16
16.78
11.48
5.54
-1.16
-8.13
-14.68
-20.29
-24.70
-27.57
-28.33
-26.29
-21.04
-12.89
-3.00
6.99
15.43
21.11
23.48
22.54
18.92
13.77
8.68
5.26
4.61
6.81
10.86
15.11
18.02
18.78
17.59
15.29
12.82
10.88
9.81
9.69
10.60
12.55
15.27
17.90
19.14
17.70
12.97
5.39
-3.75
-13.06
-21.79
-29.83
-37.22
-43.43
-47.05
-46.09
-38.90
-24.98
-5.63
16.31
37.20
53.58
63.16
65.30
61.12
53.19
44.89
39.33
38.24
41.33
46.53
50.84
51.61
47.40
38.15
24.78
8.51
-9.71
-29.48
-50.73
-72.88
-94.38
-112.74
-125.22
-130.13
-127.62
-119.83
-109.93
-100.79
-93.73
-88.31
-82.97
-76.30
-67.95
-58.76
-50.24
-43.85
-40.62
-40.95
-44.67
-51.04
-58.77
-66.19
-71.61
-73.88
-72.69
-68.61
-62.68
-56.02
-49.56
-44.03
-40.09
-38.26
-38.46
-39.51
-38.99
-33.72
-20.91
0.57
29.44
62.26
94.28
121.05
139.69
149.56
152.17
150.41
147.51
146.23
148.22
153.81
162.04
170.85
177.62
179.79
175.76
165.41
150.32
133.24
117.15
104.15
94.86
88.53
83.68
78.91
73.45
67.14
60.13
52.60
44.72
36.80
29.38
23.13
18.50
15.64
14.38
14.49
15.78
17.99
20.42
21.81
20.54
15.41
6.25
-5.89
-19.32
-32.61
-45.22
-57.39
-69.41
-80.84
-90.20
-95.59
-95.77
-90.95
-82.87
-73.99
-66.28
-60.42
-55.69
-50.68
-44.29
-36.28
-27.36
-18.73
-11.42
-5.88
-1.91
1.08
3.67
6.20
8.68
10.90
12.74
14.29
15.86
17.79
20.18
22.83
25.27
27.04
27.94
28.11
27.96
27.93
28.20
28.76
29.45
30.14
30.85
31.66
32.66
33.89
35.35
37.11
39.28
41.96
45.15
48.70
52.27
55.48
58.07
59.96
61.29
62.25
62.91
63.05
62.13
59.53
54.77
47.79
38.92
28.86
18.34
7.99
-1.85
-11.05
-19.62
-27.59
-34.97
-41.73
-47.84
-53.25
-57.93
-61.86
-65.02
-67.47
-69.32
-70.69
-71.62
-71.87
-70.92
-68.22
-63.34
-56.13
-46.60
-34.85
-20.96
-5.00
12.88
32.39
52.99
73.94
94.32
113.14
129.43
142.40
151.38
155.81
155.23
149.34
138.20
122.46
103.44
82.84
62.28
42.79
24.71
8.02
-7.09
-20.03
-30.18
-37.62
-43.63
-50.60
-61.03
-76.00
-94.36
-112.79
-127.22
-134.58
-134.12
-127.51
-117.84
-108.12
-100.03
-93.65
-88.10
-82.63
-77.33
-73.18
-71.27
-71.97
-74.42
-76.91
-77.74
-76.09
-72.46
-68.37
-65.73
-65.91
-69.18
-74.65
-80.64
-85.36
-87.59
-87.13
-84.75
-82.02
-80.66
-82.05
-86.64
-93.79
-101.77
-108.14
-110.34
-106.38
-95.43
-78.11
-56.35
-32.82
-9.92
11.16
31.00
51.79
76.31
106.57
142.52
181.47
218.52
247.91
264.86
267.05
255.25
232.85
204.51
174.66
146.40
121.25
99.55
81.20
66.11
54.04
44.30
35.56
26.03
14.32
0.11
-15.50
-30.56
-43.08
-51.89
-57.01
-59.30
-59.89
-59.58
-58.56
-56.57
-53.25
-48.46
-42.43
-35.74
-29.22
-23.76
-20.06
-18.30
-17.97
-18.01
-17.21
-14.85
-11.12
-7.00
-3.83
-2.48
-2.96
-4.52
-6.11
-7.05
-7.25
-7.01
-6.45
-5.28
-2.82
1.52
7.70
14.84
21.56
26.53
29.14
29.65
29.05
28.48
28.71
29.77
31.10
31.92
31.79
30.85
29.77
29.26
29.61
30.38
30.67
29.60
26.90
22.95
18.62
14.71
11.53
8.82
6.11
3.04
-0.28
-3.34
-5.54
-6.59
-6.67
-6.35
-6.20
-6.45
-6.87
-6.91
-6.09
-4.37
-2.23
-0.57
-0.28
-1.95
-5.70
-11.28
-18.16
-25.67
-32.97
-39.00
-42.63
-42.96
-39.71
-33.52
-25.74
-18.04
-11.79
-7.62
-5.41
-4.56
-4.37
-4.32
-4.07
-3.42
-2.14
-0.07
2.86
6.54
10.73
15.14
19.69
24.54
30.07
36.76
44.91
54.44
64.72
74.64
82.68
87.34
87.50
82.90
74.26
63.13
51.39
40.68
31.79
24.56
18.02
10.97
2.39
-8.13
-20.40
-33.79
-47.47
-60.60
-72.48
-82.67
-91.21
-98.77
-106.67
-116.43
-129.12
-144.71
-161.79
-177.99
-190.74
-198.24
-199.88
-196.15
-188.06
-176.46
-161.74
-143.96
-123.36
-100.72
-77.48
-55.37
-35.90
-19.90
-7.41
2.05
9.11
14.19
17.41
18.78
18.41
16.71
14.49
12.75
12.38
13.96
17.46
22.29
27.40
31.62
34.05
34.48
33.49
32.34
32.41
34.66
39.03
44.42
49.09
51.30
49.81
44.09
34.30
21.25
6.48
-7.68
-18.49
-23.49
-21.55
-13.51
-2.20
8.58
15.40
16.34
11.50
2.50
-8.43
-19.31
-28.80
-36.09
-40.65
-42.09
-40.29
-35.47
-28.40
-20.37
-12.88
-7.25
-4.15
-3.32
-3.64
-3.61
-1.96
1.73
6.96
12.48
16.94
19.36
19.59
18.16
16.06
14.26
13.40
13.66
14.77
16.26
17.69
18.82
19.72
20.60
21.60
22.71
23.66
24.29
24.67
25.24
26.62
29.25
32.99
37.11
40.54
42.34
42.18
40.49
38.24
36.45
35.69
35.85
36.20
35.73
33.52
29.13
22.67
14.86
6.75
-0.54
-6.13
-9.69
-11.42
-12.01
-12.32
-12.99
-14.26
-15.90
-17.44
-18.40
-18.65
-18.38
-18.01
-17.95
-18.42
-19.43
-20.78
-22.22
-23.55
-24.61
-25.31
-25.56
-25.29
-24.50
-23.31
-21.97
-20.80
-20.14
-20.14
-20.76
-21.69
-22.52
-22.87
-22.56
-21.75
-20.87
-20.51
-21.25
-23.32
-26.62
-30.62
-34.63
-38.04
-40.63
-42.66
-44.71
-47.39
-50.93
-55.05
-58.99
-61.88
-63.01
-62.13
-59.50
-55.79
-52.06
-49.52
-49.25
-51.84
-56.84
-62.67
-66.93
-67.22
-62.10
-51.79
-38.20
-24.12
-12.13
-3.56
1.92
5.80
9.95
15.63
23.18
32.14
41.84
51.88
62.20
72.84
83.50
93.42
101.66
107.71
111.86
115.02
117.99
120.69
121.69
118.74
109.94
94.70
74.17
50.65
26.59
3.82
-16.50
-33.19
-44.41
-48.01
-42.80
-30.08
-13.99
-0.26
6.47
4.94
-2.05
-9.38
-12.61
-10.48
-5.41
-1.85
-3.40
-10.74
-21.41
-31.39
-37.53
-39.10
-37.96
-37.15
-39.17
-44.74
-52.58
-60.20
-65.23
-66.38
-63.86
-58.84
-52.70
-46.26
-39.44
-31.56
-21.78
-9.70
4.34
19.37
34.07
47.28
58.38
67.50
75.44
83.31
92.20
102.85
115.36
129.02
142.19
152.47
157.23
154.52
144.04
127.70
109.28
93.32
83.58
81.78
87.24
97.36
108.74
118.27
123.80
124.27
119.54
110.10
96.84
80.89
63.53
46.16
30.10
16.36
5.25
-3.72
-11.71
-19.83
-28.36
-36.28
-41.46
-41.60
-35.45
-23.75
-9.32
3.72
11.34
11.02
2.55
-12.01
-29.20
-45.31
-57.40
-63.95
-64.90
-61.24
-54.42
-45.96
-37.22
-29.35
-23.22
-19.19
-16.85
-15.20
-13.11
-10.02
-6.28
-2.91
-1.01
-1.12
-2.87
-5.30
-7.60
-9.60
-11.81
-14.94
-19.19
-23.96
-28.31
-31.36
-32.89
-33.50
-34.40
-36.71
-40.92
-46.63
-52.76
-58.62
-63.77
-68.14
-71.80
-74.82
-77.31
-79.58
-82.29
-86.06
-91.89
-99.63
-107.82
-114.21
-117.05
-116.14
-112.98
-109.84
-108.15
-108.71
-110.33
-110.57
-106.93
-98.02
-84.02
-66.55
-48.01
-25.40
1.39
30.37
58.14
81.71
100.33
115.70
130.51
145.09
159.93
172.81
180.80
181.59
174.57
160.75
142.15
121.30
100.69
82.56
67.38
54.76
43.57
32.17
18.90
2.75
-15.91
-35.14
-51.94
-64.23
-71.19
-73.33
-71.87
-67.97
-62.39
-55.81
-49.11
-43.52
-40.49
-40.56
-42.76
-44.83
-44.31
-39.81
-31.81
-22.38
-14.10
-8.94
-7.27
-7.88
-8.77
-8.16
-5.27
-0.45
5.21
10.48
14.37
16.49
16.92
16.21
15.13
14.47
14.79
16.23
18.35
20.37
21.41
20.86
18.65
15.14
10.96
6.67
2.66
-0.91
-3.93
-6.27
-7.81
-8.52
-8.59
-8.40
-8.42
-9.04
-10.44
-12.56
-15.11
-17.65
-19.61
-20.43
-19.63
-16.98
-12.70
-7.40
-1.98
2.74
6.29
8.68
10.27
11.44
12.36
12.89
12.85
12.23
11.37
10.89
11.35
12.86
15.02
17.07
18.29
18.39
17.60
16.52
15.74
15.52
15.71
15.91
15.73
14.96
13.62
11.84
9.81
7.69
5.60
3.64
1.91
0.49
-0.58
-1.29
-1.77
-2.20
-2.90
-4.18
-6.12
-8.51
-10.76
-12.09
-11.83
-9.80
-6.37
-2.32
1.48
4.42
6.31
7.33
7.83
8.23
8.79
9.74
11.21
13.37
16.22
19.53
22.55
24.12
22.95
18.18
9.90
-0.63
-11.38
-20.23
-25.84
-28.10
-28.07
-27.38
-27.51
-29.29
-32.72
-37.27
-42.22
-47.01
-51.38
-55.41
-59.44
-63.85
-68.90
-74.61
-80.68
-86.64
-91.88
-95.53
-96.47
-93.48
-85.88
-74.31
-61.34
-50.99
-47.32
-52.54
-65.71
-82.80
-98.24
-107.12
-106.83
-97.55
-81.44
-61.38
-39.99
-19.44
-1.54
11.98
19.68
20.81
15.73
5.94
-6.13
-17.61
-25.73
-28.30
-24.27
-14.07
0.29
15.81
29.33
38.48
42.29
41.02
35.64
27.25
16.78
5.14
-6.55
-16.85
-24.30
-28.12
-28.94
-29.03
-31.67
-39.80
-54.50
-74.14
-94.62
-110.74
-118.03
-114.23
-99.77
-77.29
-50.49
-23.14
1.41
20.28
31.10
32.28
23.76
7.66
-11.69
-28.64
-37.84
-35.95
-22.61
-0.38
26.54
54.01
79.50
102.74
125.29
149.26
176.00
205.22
235.07
262.82
286.02
303.30
314.61
320.94
323.53
323.28
320.44
314.76
306.04
294.59
281.42
267.93
255.34
244.17
234.21
224.87
215.77
207.20
200.16
195.89
195.21
198.03
203.21
208.98
213.43
215.08
213.05
206.92
196.42
181.20
160.88
135.28
104.92
71.26
36.41
2.49
-29.22
-58.73
-87.19
-116.09
-146.36
-177.70
-208.43
-235.84
-256.81
-268.44
-268.68
-256.87
-234.27
-204.31
-172.25
-144.08
-124.77
-116.58
-118.33
-125.89
-133.88
-137.40
-133.26
-120.21
-98.62
-70.13
-37.63
-5.26
22.03
39.76
45.38
39.29
24.76
6.38
-11.75
-27.28
-39.77
-49.83
-58.12
-64.95
-70.54
-75.32
-80.04
-85.35
-91.30
-97.25
-102.41
-106.56
-110.53
-115.96
-124.56
-137.14
-153.15
-170.77
-187.61
-201.67
-212.02
-218.98
-223.62
-226.91
-228.96
-228.81
-224.80
-215.27
-199.18
-176.31
-147.07
-112.29
-73.20
-31.66
9.74
47.90
79.93
104.13
120.46
130.53
136.68
140.97
144.31
146.40
146.12
142.23
133.91
121.07
104.33
84.86
64.19
43.97
25.75
10.87
0.23
-5.79
-7.38
-5.33
-0.81
4.84
10.27
14.35
16.35
16.01
13.72
10.32
6.71
3.06
-1.58
-9.26
-22.29
-41.93
-67.45
-96.07
-124.01
-148.10
-167.24
-182.48
-195.81
-208.21
-218.14
-221.53
-213.37
-190.08
-151.41
-100.78
-43.94
13.30
66.98
115.55
159.02
197.63
230.85
257.53
276.70
288.25
292.71
290.32
280.37
261.37
232.63
196.33
158.46
127.75
112.48
116.63
137.54
166.68
193.01
207.63
206.90
192.89
171.05
146.78
122.89
99.11
73.66
45.50
15.93
-11.53
-32.59
-44.26
-46.18
-40.52
-30.93
-20.79
-12.12
-5.36
-0.27
2.90
2.93
-2.00
-12.95
-29.15
-47.68
-64.52
-76.23
-81.31
-80.44
-75.60
-68.81
-61.10
-52.35
-41.89
-29.34
-15.24
-1.26
9.92
15.24
12.17
-0.08
-19.63
-41.90
-60.84
-71.04
-69.86
-58.41
-40.91
-22.71
-8.05
1.30
5.90
7.57
7.89
7.36
5.44
1.21
-5.86
-15.56
-27.06
-39.40
-51.84
-63.96
-75.48
-85.82
-94.06
-99.12
-100.34
-97.92
-92.95
-86.95
-81.15
-76.03
-71.29
-66.26
-60.33
-53.09
-44.24
-33.48
-20.74
-6.54
7.65
19.58
27.04
28.80
25.22
17.80
8.14
-3.29
-17.59
-36.74
-62.23
-93.96
-130.09
-167.99
-205.39
-240.98
-273.82
-302.29
-323.22
-332.26
-325.35
-300.57
-258.94
-203.93
-140.11
-72.01
-4.06
58.65
110.05
144.01
156.58
148.33
125.11
96.44
72.03
58.19
56.21
63.02
73.97
85.50
96.62
108.34
121.91
137.21
152.06
163.03
167.00
162.62
151.16
135.89
120.66
108.24
99.23
91.96
83.62
71.71
55.41
35.97
16.06
-1.47
-14.73
-23.39
-28.40
-31.20
-33.00
-34.38
-35.42
-36.11
-36.63
-37.39
-38.84
-41.23
-44.39
-47.84
-51.07
-53.74
-55.89
-57.95
-60.48
-63.81
-67.81
-71.77
-74.55
-74.97
-72.04
-65.50
-55.89
-44.63
-33.32
-23.34
-15.40
-9.52
-5.12
-1.31
2.66
7.01
11.27
14.85
17.31
18.63
19.03
18.72
18.04
17.06
15.78
13.88
11.63
9.65
8.64
8.77
9.70
11.63
14.84
19.61
24.89
30.02
34.33
37.36
38.43
37.27
36.00
37.25
42.97
51.22
60.01
67.37
72.38
74.41
73.75
74.09
79.22
91.40
107.04
123.57
139.65
156.11
173.57
192.31
215.41
244.91
280.82
316.28
347.00
371.42
391.44
408.74
403.62
361.86
278.53
190.45
114.78
59.69
18.47
-10.74
-30.32
-43.80
-52.11
-56.17
-57.15
-61.25
-71.24
-87.31
-106.92
-128.28
-149.92
-167.97
-178.84
-180.51
-176.93
-171.39
-166.40
-162.54
-160.34
-159.69
-158.24
-153.57
-144.24
-132.68
-120.93
-110.42
-101.38
-94.15
-89.02
-85.41
-82.62
-80.02
-78.25
-77.22
-76.46
-75.15
-72.98
-70.03
-66.25
-61.67
-56.43
-51.32
-47.06
-44.27
-43.19
-43.66
-45.02
-46.15
-45.87
-43.35
-38.45
-31.74
-24.23
-17.02
-10.90
-6.22
-2.95
-0.83
0.49
1.36
2.11
2.99
4.11
5.37
6.45
6.94
6.60
5.48
3.97
2.72
2.35
3.18
5.17
7.95
11.07
14.16
17.11
20.01
23.08
26.48
30.22
34.14
37.94
41.32
44.09
46.20
47.83
49.25
50.73
52.40
54.24
55.99
57.33
57.95
57.69
56.51
54.50
51.78
48.58
45.16
41.74
38.43
35.06
31.25
26.55
20.83
14.46
8.34
3.59
1.06
0.87
2.23
3.62
3.21
-0.52
-8.29
-19.83
-33.73
-47.80
-59.49
-66.53
-67.63
-62.97
-54.28
-44.44
-36.70
-33.66
-36.51
-44.72
-56.26
-68.32
-78.10
-83.62
-84.09
-79.92
-72.46
-63.50
-54.80
-47.61
-42.50
-39.38
-37.73
-36.89
-36.35
-35.76
-34.96
-33.84
-32.37
-30.65
-28.99
-27.85
-27.65
-28.56
-30.30
-32.16
-33.32
-33.16
-31.60
-29.19
-26.92
-25.76
-26.25
-28.09
-30.26
-31.30
-29.90
-25.33
-17.61
-7.47
3.97
15.46
25.84
34.06
39.37
41.43
40.60
37.95
35.03
33.29
33.43
35.15
37.30
38.52
37.98
35.83
33.12
31.26
31.29
33.42
37.07
41.31
45.50
49.53
53.82
58.74
64.19
69.45
73.33
74.69
72.90
68.04
60.72
51.71
41.64
30.93
20.13
10.18
2.54
-1.14
0.27
6.72
16.65
27.29
35.56
39.12
37.10
30.25
20.36
9.43
-1.08
-10.63
-19.49
-28.41
-38.15
-49.19
-61.50
-74.37
-86.29
-95.05
-98.31
-94.55
-83.92
-68.69
-52.63
-39.71
-32.56
-31.59
-35.03
-39.99
-43.82
-45.08
-43.67
-40.29
-35.69
-30.28
-24.13
-17.41
-10.63
-4.60
-0.05
2.72
3.96
4.49
5.24
6.86
9.41
12.43
15.14
16.87
17.33
16.73
15.58
14.51
13.95
14.01
14.46
14.88
14.86
14.16
12.82
11.14
9.51
8.26
7.53
7.19
6.93
6.33
5.09
3.10
0.56
-2.08
-4.20
-5.22
-4.77
-2.83
0.31
4.08
7.88
11.21
13.79
15.55
16.59
17.07
17.21
17.20
17.23
17.38
17.64
17.88
17.92
17.62
16.96
16.02
14.91
13.75
12.63
11.59
10.69
10.01
9.60
9.40
9.29
9.05
8.57
7.82
6.92
6.07
5.40
4.88
4.37
3.64
2.57
1.16
-0.47
-2.14
-3.71
-5.12
-6.38
-7.51
-8.51
-9.38
-10.16
-10.94
-11.89
-13.12
-14.57
-15.98
-16.91
-16.91
-15.70
-13.31
-10.07
-6.52
-3.17
-0.40
1.67
3.15
4.23
5.15
6.04
6.95
7.84
8.66
9.36
9.94
10.41
10.83
11.18
11.43
11.54
11.44
11.17
10.78
10.39
10.13
10.02
10.03
10.00
9.83
9.45
8.92
8.34
7.79
7.29
6.77
6.16
5.46
4.77
4.22
3.90
3.77
3.64
3.29
2.56
1.47
0.26
-0.80
-1.50
-1.83
-1.97
-2.25
-2.92
-4.11
-5.76
-7.71
-9.71
-11.54
-12.99
-13.86
-14.00
-13.32
-11.84
-9.72
-7.23
-4.68
-2.36
-0.45
1.00
2.02
2.78
3.49
4.32
5.35
6.55
7.74
8.73
9.39
9.65
9.55
9.19
8.68
8.10
7.55
7.12
6.86
6.80
6.89
7.04
7.15
7.10
6.85
6.38
5.70
4.82
3.77
2.60
1.35
0.09
-1.14
-2.33
-3.45
-4.50
-5.47
-6.33
-7.08
-7.70
-8.16
-8.40
-8.35
-7.93
-7.10
-5.94
-4.57
-3.20
-1.99
-1.09
-0.55
-0.37
-0.52
-0.98
-1.67
-2.42
-2.98
-3.07
-2.51
-1.35
0.10
1.42
2.19
2.28
1.85
1.31
1.15
1.74
3.19
5.38
8.04
10.92
13.83
16.73
19.66
22.81
26.55
31.39
37.81
45.95
55.25
64.32
71.21
74.08
71.93
65.15
55.46
45.33
37.12
32.26
30.96
32.34
34.99
37.52
39.05
39.31
38.64
37.66
37.09
37.36
38.42
39.67
40.08
38.59
34.49
27.73
18.99
9.57
1.02
-5.20
-8.12
-7.59
-4.27
0.24
3.98
5.05
2.34
-4.13
-12.96
-22.01
-29.40
-34.43
-37.92
-41.68
-47.30
-54.74
-61.78
-64.67
-59.90
-46.22
-25.68
-3.03
16.27
28.36
32.28
29.71
23.52
16.15
8.72
1.32
-6.12
-13.01
-18.08
-19.95
-17.87
-12.35
-4.90
2.64
8.85
13.07
15.53
17.02
18.38
20.01
21.64
22.37
21.14
17.29
10.92
3.01
-5.06
-12.06
-17.45
-21.44
-24.73
-28.06
-31.72
-35.54
-38.99
-41.52
-42.84
-42.93
-41.94
-39.97
-37.03
-33.05
-28.05
-22.23
-15.96
-9.77
-4.10
0.80
4.89
8.34
11.43
14.38
17.38
20.53
23.83
27.21
30.44
33.25
35.33
36.49
36.72
36.28
35.55
34.93
34.65
34.59
34.41
33.59
31.70
28.56
24.33
19.44
14.54
10.35
7.58
6.75
7.86
10.21
12.47
13.15
11.30
7.03
1.56
-3.32
-6.11
-6.37
-4.88
-3.13
-2.54
-3.80
-6.60
-9.98
-12.78
-14.12
-13.66
-11.58
-8.48
-5.11
-2.12
0.27
2.25
4.35
7.07
10.51
14.29
17.72
20.23
21.79
23.07
25.21
29.29
35.78
44.27
53.62
62.27
68.90
72.62
73.10
70.34
64.49
55.79
44.73
32.31
19.90
8.85
-0.19
-7.61
-14.74
-23.06
-33.46
-45.79
-59.15
-72.51
-85.27
-97.38
-108.82
-119.11
-127.14
-131.57
-131.66
-127.81
-121.55
-114.69
-108.46
-102.88
-96.97
-89.57
-80.05
-68.88
-57.39
-47.01
-38.61
-32.08
-26.54
-20.90
-14.45
-7.12
0.63
8.11
14.83
20.57
25.36
29.24
32.17
33.96
34.44
33.51
31.25
27.89
23.73
18.98
13.70
7.85
1.40
-5.51
-12.48
-18.97
-24.44
-28.56
-31.32
-32.92
-33.60
-33.53
-32.76
-31.34
-29.47
-27.51
-25.88
-24.83
-24.33
-24.05
-23.56
-22.48
-20.70
-18.41
-16.00
-13.83
-12.13
-10.88
-9.90
-8.96
-7.90
-6.70
-5.50
-4.50
-3.85
-3.58
-3.58
-3.65
-3.62
-3.35
-2.80
-2.02
-1.08
-0.09
0.82
1.54
1.98
2.05
1.67
0.79
-0.60
-2.42
-4.53
-6.72
-8.78
-10.55
-12.04
-13.33
-14.60
-16.03
-17.74
-19.69
-21.73
-23.57
-24.94
-25.63
-25.66
-25.23
-24.65
-24.20
-23.99
-23.87
-23.58
-22.90
-21.79
-20.46
-19.21
-18.29
-17.77
-17.51
-17.31
-17.04
-16.74
-16.63
-17.01
-18.09
-19.94
-22.40
-25.14
-27.76
-29.86
-31.20
-31.73
-31.50
-30.63
-29.17
-27.02
-23.94
-19.65
-14.00
-7.00
1.10
9.99
19.46
29.49
40.17
51.55
63.42
75.37
86.96
97.97
108.57
119.13
129.78
140.10
149.09
155.51
158.50
157.98
154.64
149.45
143.01
135.20
125.43
113.17
98.59
82.77
67.23
53.19
40.99
29.99
19.02
7.26
-5.29
-17.65
-28.35
-35.96
-39.60
-39.11
-34.95
-28.20
-20.41
-13.43
-8.96
-7.95
-10.19
-14.31
-18.41
-20.94
-21.51
-20.97
-20.83
-22.36
-25.90
-30.73
-35.62
-39.50
-41.98
-43.22
-43.50
-42.75
-40.47
-36.02
-29.20
-20.54
-11.28
-2.80
3.94
8.82
12.50
15.89
19.70
23.97
28.11
31.13
32.12
30.58
26.73
21.52
16.43
13.05
12.40
14.45
18.00
21.10
21.92
19.60
14.69
8.83
4.10
2.30
4.52
11.14
21.87
35.66
50.47
63.34
71.00
71.06
63.19
49.48
33.67
19.51
9.23
2.82
-1.40
-5.52
-10.77
-17.15
-23.71
-29.38
-33.61
-36.47
-38.40
-39.82
-40.92
-41.69
-42.08
-42.12
-42.01
-42.03
-42.54
-43.87
-46.25
-49.62
-53.59
-57.48
-60.54
-62.34
-62.98
-63.08
-63.47
-64.75
-67.00
-69.73
-72.13
-73.50
-73.51
-72.27
-70.17
-67.61
-64.77
-61.62
-58.00
-53.84
-49.23
-44.47
-39.93
-35.88
-32.39
-29.26
-26.17
-22.80
-19.04
-15.03
-11.09
-7.60
-4.84
-2.83
-1.41
-0.29
0.77
1.87
2.90
3.65
3.92
3.63
2.89
1.98
1.17
0.67
0.47
0.46
0.48
0.44
0.31
0.12
-0.13
-0.47
-0.84
-1.00
-0.56
0.89
3.69
7.91
13.46
20.10
27.64
35.87
44.48
52.96
60.70
67.19
72.29
76.36
80.07
83.95
88.09
91.93
94.53
95.03
93.08
89.10
84.04
79.05
75.08
72.74
72.24
73.48
75.96
78.67
80.10
78.64
73.19
63.86
52.21
40.80
32.24
28.07
28.22
31.24
35.15
38.43
40.52
41.72
42.55
43.25
43.58
43.07
41.50
39.11
36.59
34.65
33.60
33.17
32.65
31.30
28.70
24.96
20.65
16.50
13.19
11.18
10.61
11.46
13.58
16.70
20.46
24.46
28.32
31.82
34.91
37.69
40.14
41.99
42.63
41.28
37.27
30.39
21.19
11.02
1.83
-4.26
-5.70
-2.13
5.15
13.33
18.70
17.83
8.66
-8.74
-32.22
-58.23
-82.89
-103.05
-116.91
-124.23
-126.04
-124.13
-120.43
-116.60
-113.57
-111.49
-109.72
-107.21
-103.03
-96.91
-89.57
-82.53
-77.58
-75.85
-77.13
-79.58
-80.15
-75.52
-63.32
-43.08
-16.68
11.85
37.33
54.92
61.93
58.89
49.45
38.79
31.11
27.60
25.90
21.50
10.28
-9.16
-34.68
-61.26
-82.74
-93.93
-92.16
-78.20
-56.14
-32.38
-13.63
-4.48
-5.60
-13.49
-22.29
-26.74
-24.67
-17.71
-9.71
-4.10
-1.69
-0.51
2.77
10.48
22.39
35.36
44.55
45.23
34.72
13.67
-13.90
-41.69
-63.34
-74.71
-75.48
-69.04
-60.81
-55.52
-55.02
-57.70
-59.85
-58.14
-51.79
-43.11
-36.23
-34.60
-38.83
-46.15
-51.68
-51.00
-42.50
-28.18
-12.59
-0.40
5.90
7.05
6.14
6.70
10.71
17.72
25.27
30.09
29.23
20.96
5.40
-15.08
-35.68
-49.89
-51.23
-36.01
-5.50
33.42
70.20
94.41
99.79
86.59
60.99
32.09
8.06
-6.72
-12.19
-11.25
-7.49
-3.49
-0.24
2.48
5.40
9.07
13.53
18.17
21.85
23.08
20.48
13.53
2.98
-9.09
-20.16
-28.28
-32.94
-35.10
-36.29
-37.43
-38.24
-37.53
-34.22
-28.34
-21.32
-15.38
-12.50
-13.39
-17.21
-22.02
-25.71
-26.95
-25.64
-22.73
-19.53
-17.03
-15.50
-14.49
-13.26
-11.36
-8.84
-6.29
-4.50
-4.00
-4.79
-6.25
-7.44
-7.49
-5.98
-3.10
0.51
4.03
6.83
8.61
9.49
9.80
9.89
9.95
9.96
9.78
9.23
8.18
6.60
4.53
2.03
-0.79
-3.74
-6.49
-8.65
-9.84
-9.86
-8.78
-6.99
-5.02
-3.49
-2.87
-3.52
-5.71
-9.57
-15.08
-21.88
-29.23
-35.99
-40.93
-43.16
-42.58
-40.05
-37.11
-35.37
-35.69
-37.68
-39.78
-39.92
-36.45
-28.86
-17.95
-5.33
7.26
18.48
27.57
34.06
37.50
37.64
34.70
29.86
25.24
23.30
25.92
33.50
44.67
56.69
66.49
71.75
71.65
66.93
59.43
51.31
44.32
39.33
36.29
34.46
32.73
30.12
26.01
20.18
12.80
4.16
-5.39
-15.48
-25.65
-35.25
-43.42
-49.27
-52.09
-51.73
-48.78
-44.55
-40.76
-39.08
-40.61
-45.54
-53.00
-61.26
-68.21
-71.99
-71.66
-67.57
-61.22
-54.55
-49.05
-45.22
-42.31
-38.71
-32.83
-23.91
-12.40
0.33
12.91
24.64
35.42
45.43
54.66
62.95
70.36
77.24
84.20
91.06
96.07
95.44
85.13
63.43
32.97
0.48
-26.31
-41.69
-44.30
-36.73
-24.52
-13.25
-6.85
-7.33
-15.99
-35.12
-65.88
-106.39
-149.41
-185.78
-207.02
-208.81
-192.40
-164.38
-135.66
-115.82
-109.84
-115.51
-128.54
-144.34
-159.56
-171.93
-180.36
-186.85
-193.30
-200.51
-205.30
-205.67
-200.56
-190.23
-175.22
-143.58
-89.91
-16.00
54.86
114.53
161.21
198.90
228.04
249.00
263.39
272.19
277.43
281.04
286.10
291.59
294.23
290.66
280.25
264.73
245.26
222.82
197.92
172.76
148.06
124.36
102.44
83.98
70.46
61.13
53.98
46.61
38.42
28.95
18.54
8.06
-1.20
-8.23
-13.34
-17.30
-20.83
-23.59
-25.31
-25.87
-25.49
-24.55
-23.55
-23.02
-23.14
-23.66
-23.92
-23.62
-22.96
-22.56
-23.01
-24.58
-27.09
-30.02
-32.81
-35.07
-36.82
-38.38
-40.22
-42.68
-45.81
-49.33
-52.70
-55.32
-56.80
-57.11
-56.60
-55.87
-55.50
-55.85
-56.95
-58.56
-60.31
-61.79
-62.52
-61.93
-59.42
-54.55
-47.29
-38.17
-28.17
-18.27
-8.94
0.15
9.93
21.40
34.95
49.89
64.60
77.16
86.11
90.98
92.36
91.38
89.10
86.07
82.23
77.25
70.94
63.45
55.18
46.46
37.29
27.24
15.70
2.27
-12.95
-29.19
-45.27
-59.92
-72.12
-81.34
-87.56
-91.14
-92.70
-92.80
-91.83
-89.85
-86.70
-82.12
-75.92
-68.03
-58.49
-47.33
-34.52
-20.10
-4.39
11.89
27.64
41.70
53.22
61.95
68.28
73.08
77.40
82.07
87.41
93.03
97.78
100.12
98.62
92.61
82.62
70.35
58.18
48.44
42.84
42.17
46.34
54.65
65.92
78.47
90.26
99.02
102.82
100.62
92.81
81.09
67.96
55.81
46.19
39.41
34.92
31.89
29.82
28.88
29.73
33.08
39.22
47.89
58.33
69.51
80.21
89.12
95.01
96.89
94.23
87.12
76.10
61.90
44.92
25.03
1.86
-24.82
-54.32
-84.67
-112.68
-134.39
-145.90
-144.53
-129.76
-103.49
-69.79
-33.84
-0.72
25.66
43.37
52.95
56.43
56.43
55.26
54.45
54.65
55.63
56.10
54.51
50.13
42.31
30.39
13.56
-8.92
-36.98
-69.44
-104.58
-139.37
-169.30
-190.50
-200.61
-199.26
-187.64
-167.48
-140.34
-108.25
-71.99
-30.28
17.99
72.93
133.15
195.87
257.97
316.95
370.17
403.67
405.93
371.45
305.29
221.34
134.71
55.95
-4.13
-49.35
-83.96
-108.75
-123.54
-128.78
-126.27
-120.89
-117.18
-118.54
-127.08
-140.95
-154.79
-162.82
-160.78
-146.62
-121.28
-87.63
-49.59
-11.62
23.52
54.53
80.04
94.45
93.31
75.90
46.79
13.45
-17.40
-40.95
-55.24
-61.02
-60.65
-56.90
-53.22
-53.22
-59.89
-73.97
-92.01
-107.53
-113.26
-104.01
-78.82
-42.20
-1.72
31.44
49.80
53.05
46.33
36.56
28.79
24.85
23.91
24.44
25.40
26.51
27.07
24.80
16.88
2.37
-16.72
-35.73
-49.80
-56.77
-58.84
-59.01
-58.95
-58.86
-55.70
-45.69
-27.75
-6.07
12.70
21.60
16.82
-1.21
-28.11
-57.11
-81.33
-95.07
-94.48
-77.69
-45.33
-0.66
50.19
99.33
139.04
163.31
169.05
156.68
129.93
94.84
58.36
26.46
3.15
-10.23
-14.89
-13.91
-10.60
-7.27
-4.86
-1.97
2.62
9.64
18.98
29.61
39.58
46.97
50.63
50.50
47.64
43.42
39.09
35.05
30.55
23.16
9.99
-11.20
-41.02
-77.85
-118.19
-157.27
-190.02
-212.33
-222.84
-222.66
-214.97
-203.83
-192.66
-183.08
-174.26
-163.36
-142.24
-106.16
-55.71
2.58
59.14
106.10
139.77
160.28
169.46
169.32
160.96
146.03
127.43
109.10
95.09
87.83
87.55
92.50
99.71
105.60
107.26
102.87
91.73
75.23
56.98
42.16
35.82
40.36
53.35
68.36
77.81
76.21
63.50
44.58
26.10
12.67
4.49
-2.19
-12.08
-27.89
-50.05
-76.46
-104.24
-130.58
-152.72
-167.41
-171.59
-164.48
-144.04
-116.02
-90.77
-79.18
-88.16
-117.73
-160.87
-206.16
-241.78
-259.07
-255.47
-233.34
-198.39
-157.78
-118.25
-84.82
-60.47
-46.25
-41.36
-43.72
-49.39
-53.19
-50.48
-39.02
-19.46
4.10
25.47
38.98
41.32
32.92
17.90
1.51
-12.18
-20.17
-21.62
-17.55
-9.76
0.05
10.47
21.96
35.31
51.02
71.35
98.28
132.68
173.50
217.63
259.69
295.49
321.70
336.59
343.31
347.15
353.30
365.01
382.98
404.53
427.41
448.16
447.37
412.16
341.46
247.81
150.28
72.62
15.09
-28.74
-66.87
-106.00
-147.89
-189.42
-226.32
-256.14
-279.16
-297.97
-311.85
-317.48
-310.67
-287.10
-246.90
-196.39
-146.16
-106.24
-82.68
-73.72
-73.61
-76.80
-79.52
-80.81
-81.08
-79.83
-74.31
-60.66
-34.67
4.77
53.97
105.05
147.48
170.98
169.14
142.40
98.13
48.57
5.85
-22.24
-33.78
-31.61
-20.47
-4.25
14.75
34.99
54.57
70.68
80.57
82.98
78.79
70.51
60.78
51.26
42.27
33.22
23.14
10.98
-4.21
-22.76
-43.84
-65.32
-84.50
-99.08
-108.21
-112.81
-114.98
-117.05
-120.91
-127.82
-138.39
-152.00
-166.12
-176.38
-177.88
-167.39
-145.47
-116.60
-87.12
-62.02
-42.16
-24.17
-2.98
24.65
57.87
91.98
120.97
140.51
149.57
150.07
145.15
137.39
128.06
117.53
105.81
93.20
80.46
68.53
58.15
49.60
42.56
36.32
30.07
23.20
15.53
7.25
-1.29
-9.69
-17.73
-25.37
-32.63
-39.46
-45.76
-51.44
-56.41
-60.59
-63.54
-64.53
-63.24
-60.01
-56.12
-53.46
-54.15
-59.62
-70.12
-84.15
-99.02
-112.38
-122.77
-129.95
-134.57
-138.07
-141.97
-147.29
-153.54
-158.73
-161.08
-159.11
-151.84
-138.59
-119.90
-97.34
-73.61
-51.21
-31.29
-14.14
1.81
19.89
44.18
76.70
116.46
155.62
182.79
194.91
193.75
183.10
163.27
136.10
104.08
71.53
43.36
25.32
22.55
36.62
65.82
106.51
154.80
206.31
257.03
301.21
332.66
346.77
340.61
315.52
277.30
234.29
187.58
141.49
100.13
66.42
41.87
25.59
14.79
7.35
1.34
-6.03
-15.58
-28.38
-44.50
-62.43
-82.29
-104.80
-131.07
-162.41
-200.20
-244.80
-296.96
-357.28
-412.04
-448.93
-459.89
-443.06
-400.72
-336.74
-256.34
-168.12
-83.01
-10.99
40.39
69.75
81.56
83.23
81.42
79.92
79.19
78.26
76.70
73.74
69.49
64.73
60.49
57.54
55.79
54.49
52.65
49.90
45.60
39.93
33.83
28.68
25.72
25.99
30.29
39.02
51.45
64.21
71.69
67.02
45.23
6.63
-41.37
-85.73
-112.42
-112.00
-83.66
-34.96
21.99
75.66
118.78
148.77
165.72
169.77
160.38
137.78
104.86
67.68
34.11
11.15
1.83
4.92
14.88
25.11
31.10
31.62
27.82
21.77
15.27
9.17
3.70
-2.04
-9.55
-20.23
-35.19
-55.12
-79.89
-108.49
-139.70
-172.06
-201.98
-226.84
-242.69
-244.79
-229.93
-198.43
-154.90
-108.53
-64.77
-27.31
3.19
28.35
49.88
66.58
74.95
71.74
56.61
34.02
10.84
-6.52
-14.87
-15.21
-12.01
-11.96
-19.51
-35.05
-54.37
-71.17
-79.21
-77.32
-67.93
-55.43
-42.99
-31.56
-20.26
-7.71
6.00
19.21
29.68
36.89
38.46
35.48
29.81
22.41
13.75
4.27
-4.74
-11.69
-15.95
-18.87
-22.55
-28.44
-35.79
-41.73
-43.14
-38.87
-30.54
-20.94
-12.14
-3.58
7.03
22.13
42.86
68.32
96.17
123.58
148.12
167.82
181.27
187.32
185.39
176.05
161.01
142.51
122.24
100.71
77.41
52.05
25.75
1.36
-17.47
-28.38
-31.87
-31.44
-31.92
-36.90
-46.84
-58.98
-69.12
-74.09
-73.42
-69.13
-63.96
-59.33
-54.49
-47.45
-36.82
-23.37
-10.08
-0.46
3.48
2.51
-0.30
-1.45
0.87
5.84
10.58
11.99
8.50
0.76
-8.85
-17.47
-22.75
-23.18
-18.00
-6.98
9.44
29.87
51.74
71.77
87.13
96.65
101.21
103.09
104.51
106.23
107.08
104.67
96.77
82.59
63.17
40.75
17.69
-4.43
-24.93
-43.48
-59.48
-71.80
-79.32
-81.69
-79.84
-75.90
-72.44
-71.49
-73.70
-78.02
-82.20
-83.79
-81.20
-74.45
-65.01
-54.98
-46.13
-38.98
-32.79
-26.09
-17.58
-6.86
5.42
17.94
29.44
39.30
47.66
55.11
62.12
68.68
74.30
78.28
80.20
80.18
78.87
77.14
75.71
74.72
73.70
71.74
67.91
61.70
53.38
43.94
34.70
26.77
20.47
15.25
10.00
3.80
-3.51
-11.24
-18.34
-24.14
-28.89
-33.65
-39.66
-47.54
-56.94
-66.81
-75.88
-83.35
-88.98
-92.86
-95.01
-95.17
-92.97
-88.22
-81.20
-72.56
-63.09
-53.43
-43.98
-34.91
-26.20
-17.82
-9.76
-2.02
5.66
13.51
21.59
29.77
37.85
45.82
53.94
62.60
72.07
82.96
95.35
108.68
121.72
133.00
141.23
145.66
146.18
143.26
139.53
137.85
140.32
147.13
156.43
165.14
170.29
169.99
163.85
155.49
149.18
148.15
153.09
162.24
172.77
182.37
190.00
195.67
203.44
217.59
241.19
274.94
317.33
365.92
418.37
472.38
503.29
490.87
424.70
311.61
173.12
34.40
-85.94
-179.26
-245.33
-289.15
-314.30
-323.83
-320.17
-306.36
-286.63
-265.86
-248.43
-236.81
-231.46
-229.32
-226.39
-219.17
-205.96
-187.43
-166.12
-144.69
-125.11
-108.48
-94.97
-84.09
-74.99
-67.17
-58.57
-49.39
-40.61
-33.34
-28.40
-27.58
-31.73
-40.02
-49.98
-58.84
-65.31
-69.76
-73.98
-80.57
-94.81
-120.78
-159.56
-208.78
-264.41
-323.11
-383.21
-444.64
-488.29
-500.31
-477.51
-430.19
-374.50
-322.42
-277.24
-234.92
-188.05
-130.62
-64.69
2.03
59.69
100.95
123.84
131.80
131.32
128.98
128.82
129.20
126.44
117.98
104.56
89.69
77.78
71.72
72.17
78.00
85.33
90.56
91.95
90.22
87.83
87.94
92.64
102.76
118.38
138.45
161.70
186.09
208.14
220.23
216.49
193.54
152.75
100.80
47.19
0.71
-34.15
-58.38
-76.98
-95.36
-117.10
-143.38
-173.46
-205.25
-235.50
-259.81
-273.20
-271.52
-253.17
-220.40
-179.06
-136.54
-99.01
-69.72
-48.94
-35.24
-26.99
-22.91
-21.74
-22.18
-22.41
-20.39
-14.64
-4.76
8.67
25.06
40.82
55.30
69.58
86.23
108.63
139.51
179.59
226.46
274.57
316.43
345.22
356.10
347.69
322.23
284.55
240.57
195.93
155.43
122.79
100.99
91.24
92.51
101.53
113.21
122.21
124.61
119.03
106.30
88.72
68.62
47.35
25.97
5.61
-11.58
-22.55
-24.56
-17.03
-2.67
12.86
23.43
25.39
18.69
6.51
-6.97
-18.75
-28.40
-37.18
-46.08
-54.91
-59.50
-54.39
-36.64
-8.60
22.33
46.72
58.18
54.06
36.05
9.63
-18.63
-43.55
-62.97
-76.88
-87.23
-96.76
-107.03
-117.84
-127.36
-133.69
-136.22
-136.29
-136.63
-140.67
-151.87
-172.50
-203.69
-244.28
-290.18
-334.47
-368.58
-384.71
-378.70
-351.68
-308.67
-257.07
-203.10
-149.78
-96.70
-41.26
19.23
87.34
157.98
226.97
287.80
333.82
360.22
365.22
350.98
322.46
285.76
245.90
206.54
168.85
132.93
98.86
66.94
38.36
14.66
-2.53
-12.56
-15.49
-12.73
-6.13
2.91
12.76
23.72
35.82
48.60
60.40
69.08
73.02
72.42
68.81
62.02
51.34
36.30
17.59
-2.61
-22.24
-40.19
-56.46
-71.95
-90.57
-116.75
-154.01
-203.55
-264.18
-332.20
-401.09
-462.04
-492.49
-477.13
-416.39
-327.92
-236.15
-159.71
-105.74
-71.29
-48.53
-30.36
-15.40
-6.01
-4.03
-7.65
-12.72
-15.41
-13.37
-5.68
6.59
19.25
27.03
27.90
23.70
19.22
17.01
19.67
30.04
49.11
74.76
101.42
125.38
145.20
161.71
176.10
189.95
206.41
227.28
251.71
274.15
290.61
298.82
299.10
292.73
269.82
226.93
167.34
115.98
82.21
68.40
66.40
68.59
65.80
49.78
18.30
-24.83
-70.27
-108.62
-129.90
-128.69
-105.66
-67.86
-24.86
16.43
51.47
77.36
89.63
86.02
66.93
36.74
2.51
-27.38
-44.81
-45.44
-29.55
-2.09
31.56
66.94
100.59
128.40
145.40
147.53
133.26
105.09
68.68
31.21
-2.44
-31.86
-60.97
-94.75
-135.28
-179.88
-222.00
-254.26
-271.28
-271.29
-255.24
-224.92
-181.31
-124.80
-57.01
17.19
89.03
147.44
182.20
187.25
162.79
115.13
54.82
-6.19
-57.26
-90.75
-102.81
-93.51
-66.54
-28.75
11.37
45.67
68.58
78.24
76.07
65.50
50.38
33.95
18.38
4.60
-7.69
-19.74
-33.10
-48.62
-65.57
-81.39
-92.53
-96.03
-91.14
-79.58
-64.55
-48.95
-34.08
-19.62
-4.78
10.27
23.80
33.25
36.59
33.62
26.29
17.99
11.75
8.70
7.66
6.12
1.93
-5.55
-15.42
-26.32
-37.26
-47.72
-56.78
-62.24
-61.17
-51.43
-33.67
-11.98
7.71
20.63
25.58
25.28
24.37
26.42
31.86
38.18
41.76
40.12
32.89
21.66
8.89
-3.09
-12.23
-16.70
-14.82
-5.65
10.30
30.61
51.38
68.44
78.82
81.64
78.22
71.30
64.15
59.92
61.06
68.89
83.29
102.30
122.30
138.87
148.20
148.56
140.97
128.70
115.69
104.81
96.75
90.15
82.59
71.86
56.78
37.42
14.83
-9.27
-32.82
-53.78
-70.38
-81.59
-87.50
-89.40
-89.37
-89.48
-90.91
-93.44
-95.68
-95.92
-93.27
-88.40
-83.47
-81.19
-83.64
-91.24
-102.64
-115.32
-126.55
-134.21
-137.00
-134.10
-124.88
-108.96
-86.63
-59.55
-30.84
-4.40
16.57
30.98
40.36
48.21
58.48
73.83
94.61
118.79
142.91
163.39
177.75
185.08
186.03
182.37
176.30
169.81
164.11
159.39
154.88
149.42
141.97
132.08
119.80
105.53
89.51
71.70
51.85
29.48
4.08
-25.07
-59.08
-99.24
-146.54
-200.92
-260.41
-321.07
-377.62
-424.67
-457.90
-474.88
-474.78
-457.87
-425.09
-378.67
-323.22
-266.16
-216.51
-182.31
-167.58
-170.54
-183.85
-197.11
-201.03
-191.20
-169.96
-145.23
-126.54
-120.21
-125.84
-135.99
-139.13
-124.44
-86.58
-28.15
40.87
106.72
156.50
182.28
182.73
162.43
129.80
94.40
64.76
46.78
43.41
54.95
79.77
114.84
156.01
198.46
237.53
269.83
294.09
311.33
323.89
334.03
342.94
350.13
353.74
351.30
340.53
320.17
290.48
253.24
211.45
168.57
127.44
89.61
55.04
22.64
-8.74
-39.44
-68.48
-93.92
-113.76
-126.76
-132.87
-133.11
-129.05
-122.22
-113.70
-104.07
-93.56
-82.33
-70.60
-58.74
-47.20
-36.40
-26.58
-17.82
-10.04
-3.10
3.13
8.66
13.48
17.69
21.56
25.63
30.50
36.54
43.68
51.31
58.49
64.21
67.68
68.50
66.84
63.16
58.12
52.31
46.16
40.04
34.38
29.74
26.63
25.30
25.54
26.75
28.10
28.93
29.00
28.47
27.68
26.75
25.46
23.38
20.16
15.85
10.93
6.10
2.07
-0.85
-2.83
-4.42
-6.34
-9.24
-13.47
-18.99
-25.30
-31.37
-35.92
-37.76
-36.20
-31.39
-24.35
-16.60
-9.74
-4.98
-2.54
-2.02
-2.50
-2.79
-1.86
0.87
5.23
10.30
14.65
17.30
17.83
16.45
13.82
10.65
7.77
6.23
7.46
10.91
16.50
23.51
30.21
34.18
32.83
25.07
11.72
-4.60
-20.47
-32.49
-38.80
-39.47
-36.21
-31.97
-29.05
-28.53
-30.17
-32.91
-35.42
-37.13
-38.76
-41.61
-47.59
-57.68
-72.21
-91.19
-114.34
-140.09
-165.32
-185.27
-191.16
-179.11
-149.86
-108.88
-64.20
-22.94
11.71
39.57
61.76
77.54
83.06
74.66
51.36
16.19
-24.68
-63.77
-95.95
-119.02
-132.77
-136.99
-130.22
-110.84
-78.80
-36.24
14.53
70.85
130.82
190.75
245.10
287.29
311.01
312.65
287.61
240.75
184.23
132.62
95.27
72.58
58.43
45.44
29.55
11.13
-5.50
-17.57
-25.45
-32.57
-43.60
-62.32
-90.39
-127.37
-171.91
-215.85
-253.53
-280.49
-292.91
-287.49
-262.73
-220.22
-165.86
-108.46
-55.67
-13.15
17.59
38.77
54.83
69.35
83.52
96.71
105.87
108.24
101.28
84.43
59.24
28.71
-4.72
-37.22
-66.34
-91.70
-109.76
-115.01
-102.37
-71.05
-26.40
21.24
61.09
86.34
92.82
82.61
62.16
39.25
18.94
2.31
-12.29
-26.46
-40.51
-53.82
-64.65
-72.38
-76.58
-77.13
-73.54
-66.23
-57.33
-50.91
-51.66
-61.82
-81.29
-106.35
-128.74
-139.33
-133.73
-114.37
-86.99
-55.97
-22.19
15.27
57.31
99.22
135.54
161.43
175.24
179.66
180.18
182.78
191.19
205.89
224.07
241.09
251.44
251.07
239.30
218.49
193.10
167.84
146.15
129.06
115.35
102.01
85.84
65.23
40.48
13.74
-11.59
-31.72
-43.77
-47.06
-43.88
-38.52
-34.59
-33.83
-35.54
-37.23
-36.18
-31.10
-22.74
-13.25
-4.32
5.09
17.59
35.59
59.05
84.64
106.67
119.49
120.14
106.12
81.22
53.69
32.72
23.32
24.51
31.70
40.41
48.54
56.44
66.11
78.29
92.12
105.34
115.41
121.19
123.22
123.21
123.17
125.18
129.54
135.23
140.00
141.84
139.77
133.97
125.03
112.92
101.07
90.10
79.20
66.01
48.89
27.78
4.39
-18.74
-39.26
-55.76
-69.01
-81.09
-96.43
-118.34
-147.86
-183.57
-222.90
-263.24
-303.02
-342.38
-382.33
-426.81
-478.33
-537.32
-602.03
-668.94
-732.67
-785.96
-820.32
-827.86
-807.61
-762.44
-698.89
-625.33
-549.97
-478.97
-415.92
-362.23
-296.07
-210.02
-109.39
-9.30
75.51
138.36
181.02
208.79
226.68
237.42
238.63
229.78
212.86
192.38
173.11
160.29
156.44
161.30
171.54
181.00
186.15
186.31
183.15
179.34
178.50
182.73
192.80
207.16
218.99
225.32
226.07
222.84
217.67
213.73
212.54
213.91
214.17
210.06
200.46
185.97
168.19
138.30
92.51
31.85
-24.37
-69.18
-100.24
-121.41
-133.78
-136.87
-130.70
-114.50
-88.72
-54.86
-17.18
21.83
60.94
99.80
139.53
180.29
222.26
264.23
304.11
338.32
365.88
388.28
409.01
434.00
466.47
505.51
544.83
574.78
585.34
571.78
536.02
467.40
367.36
246.36
120.85
6.00
-89.63
-164.89
-222.22
-265.54
-299.16
-324.71
-343.02
-354.92
-359.61
-354.84
-338.43
-309.68
-271.02
-226.55
-182.69
-145.70
-118.65
-100.90
-89.60
-81.90
-76.02
-71.35
-67.37
-60.86
-48.00
-25.46
7.84
49.45
93.34
130.90
153.26
154.38
134.00
97.50
53.68
10.91
-26.13
-57.13
-84.34
-111.38
-141.24
-174.87
-211.25
-248.30
-283.70
-315.15
-339.92
-354.87
-357.00
-344.29
-316.39
-274.86
-222.81
-164.13
-102.75
-42.09
14.83
65.24
106.69
137.49
157.15
166.77
168.86
166.61
162.96
159.75
157.47
155.69
153.82
151.59
149.05
146.29
143.16
139.26
134.23
128.07
121.28
114.69
108.97
104.32
100.43
96.58
92.08
86.20
78.05
66.40
49.80
26.73
-3.44
-39.79
-79.60
-118.62
-152.31
-177.01
-190.60
-192.38
-183.11
-164.47
-139.35
-111.84
-86.72
-68.68
-61.23
-65.42
-77.22
-90.33
-97.50
-94.09
-80.04
-58.56
-33.33
-6.99
19.11
43.43
63.06
74.15
72.82
56.96
29.35
-2.42
-27.57
-35.09
-18.81
19.20
68.59
113.41
137.97
133.54
101.07
49.28
-9.70
-64.29
-107.48
-134.63
-145.20
-142.93
-133.76
-123.29
-118.60
-118.44
-118.92
-116.23
-107.43
-89.13
-61.77
-28.36
6.67
38.54
62.06
73.76
73.52
64.05
48.36
28.79
7.90
-11.27
-25.99
-34.46
-37.11
-36.06
-33.67
-31.98
-31.49
-31.34
-29.75
-25.31
-17.39
-6.81
4.70
15.69
25.15
33.03
40.58
50.10
64.06
84.27
111.09
139.93
165.54
182.43
186.68
177.51
157.64
132.14
106.42
84.29
66.95
53.85
43.37
34.23
26.11
19.49
14.78
11.82
9.80
7.62
4.81
1.35
-2.23
-5.29
-7.41
-8.63
-9.37
-10.17
-11.45
-13.12
-14.93
-16.58
-17.85
-18.60
-18.81
-18.43
-17.48
-16.06
-14.31
-12.56
-11.19
-10.50
-10.56
-11.12
-11.81
-12.30
-12.45
-12.31
-12.05
-11.79
-11.51
-11.13
-10.62
-10.04
-9.53
-9.23
-9.15
-9.18
-9.06
-8.56
-7.55
-6.12
-4.54
-3.24
-2.63
-2.93
-3.98
-5.25
-6.06
-5.83
-4.40
-2.08
0.48
2.59
3.76
3.85
3.03
1.63
-0.00
-1.58
-2.94
-4.06
-5.02
-5.97
-7.09
-8.39
-9.76
-10.93
-11.56
-11.40
-10.33
-8.47
-6.12
-3.68
-1.57
-0.08
0.75
1.05
1.15
1.35
1.88
2.74
3.76
4.68
5.31
5.58
5.62
5.66
5.87
6.24
6.55
6.47
5.74
4.37
2.59
0.79
-0.73
-1.95
-3.04
-4.20
-5.46
-6.56
-7.14
-6.96
-6.10
-5.04
-4.38
-4.57
-5.69
-7.42
-9.17
-10.46
-11.06
-11.10
-10.87
-10.65
-10.55
-10.59
-10.76
-11.20
-12.21
-14.10
-16.98
-20.56
-24.28
-27.57
-30.26
-32.59
-35.07
-38.13
-41.82
-45.68
-48.87
-50.57
-50.30
-48.22
-44.86
-40.99
-37.39
-34.70
-33.22
-32.78
-33.04
-33.72
-35.05
-37.15
-39.79
-42.10
-42.69
-40.06
-32.87
-20.99
-5.75
10.00
23.70
33.88
40.61
45.00
48.73
54.02
62.46
74.67
89.59
106.30
124.02
141.96
158.76
172.62
182.51
187.86
188.92
185.92
180.54
174.74
169.54
163.87
150.30
123.71
83.29
39.54
-0.82
-33.90
-59.71
-78.80
-92.86
-103.91
-112.75
-119.55
-124.02
-126.91
-128.14
-127.24
-123.47
-116.55
-106.72
-94.10
-79.45
-64.15
-50.77
-40.94
-35.00
-31.92
-30.13
-28.20
-25.06
-20.74
-16.03
-12.46
-10.79
-11.25
-13.81
-18.32
-23.86
-27.85
-26.47
-16.14
4.06
31.26
59.13
80.43
90.34
89.02
81.65
75.58
76.35
84.88
97.42
108.12
112.38
108.95
99.95
89.06
79.24
71.38
64.52
57.03
48.09
38.41
29.61
23.05
19.20
17.28
15.56
12.16
5.65
-4.07
-15.38
-25.85
-33.33
-36.63
-36.07
-33.29
-30.27
-28.76
-29.24
-30.40
-31.00
-30.73
-29.94
-29.27
-29.05
-29.02
-29.13
-29.25
-28.63
-27.91
-29.07
-33.83
-42.77
-54.81
-67.72
-80.08
-91.63
-102.17
-113.31
-126.73
-141.44
-153.37
-157.12
-144.03
-112.00
-74.23
-42.05
-21.14
-14.40
-20.49
-35.64
-56.24
-80.23
-107.49
-136.98
-159.68
-165.73
-148.00
-105.36
-44.38
23.38
86.69
138.15
175.52
201.45
218.49
226.22
223.04
208.20
183.00
150.77
115.62
81.53
52.62
31.27
17.66
9.92
4.37
-3.84
-18.93
-42.49
-72.47
-103.57
-130.54
-150.44
-163.16
-170.53
-174.71
-176.47
-174.47
-166.31
-149.96
-125.30
-94.02
-58.64
-21.61
16.39
53.58
87.96
118.07
143.31
163.21
176.69
182.32
181.80
176.67
169.25
162.29
157.38
154.06
150.11
143.20
131.34
115.13
96.31
76.79
58.00
40.53
24.60
10.28
-1.96
-11.51
-17.91
-21.68
-24.03
-26.33
-29.98
-36.23
-46.40
-61.10
-79.92
-100.69
-120.07
-134.10
-139.66
-136.58
-128.07
-119.94
-117.04
-120.50
-126.44
-128.40
-120.96
-103.03
-78.78
-51.55
-24.82
1.12
28.81
61.31
98.38
135.00
165.47
185.01
192.04
187.85
175.95
158.82
139.53
121.74
109.46
105.82
110.80
120.52
127.88
125.89
109.62
79.52
40.92
1.03
-34.57
-64.17
-89.45
-114.02
-141.52
-176.15
-219.54
-269.64
-320.50
-363.33
-389.25
-392.23
-371.55
-322.22
-249.74
-166.81
-87.76
-22.07
28.24
66.28
96.51
122.52
146.58
168.05
185.76
198.58
205.13
204.48
197.43
187.22
179.42
180.23
192.80
217.23
250.48
286.46
317.53
336.46
338.47
322.19
289.52
243.73
189.25
130.75
72.34
17.16
-32.62
-75.58
-110.82
-137.84
-157.04
-169.38
-176.34
-179.77
-181.18
-181.01
-178.51
-172.45
-162.57
-151.18
-143.62
-146.86
-166.67
-203.92
-252.62
-300.78
-334.62
-344.07
-326.80
-288.99
-242.16
-198.35
-165.53
-145.77
-136.27
-131.83
-126.95
-116.54
-96.60
-64.94
-22.63
25.15
69.88
102.39
116.31
110.62
92.06
70.97
57.68
57.75
69.86
88.43
108.17
126.66
143.79
159.98
174.33
184.40
187.85
183.80
173.62
160.48
148.01
138.76
133.40
130.40
126.33
117.64
101.93
78.91
50.43
19.62
-10.34
-37.43
-58.80
-75.36
-89.19
-102.21
-115.39
-128.77
-142.12
-155.15
-166.94
-175.21
-176.49
-166.58
-142.87
-106.48
-62.73
-19.64
15.22
37.64
47.90
49.33
46.32
41.99
37.40
32.25
26.21
19.76
14.12
10.29
8.22
7.02
5.45
2.47
-2.17
-7.95
-14.00
-19.44
-23.82
-27.15
-29.46
-30.65
-30.25
-27.80
-23.23
-17.05
-10.03
-3.04
3.38
9.50
16.28
24.94
35.86
48.04
59.26
67.04
69.70
67.30
61.91
56.83
55.54
60.17
71.06
86.95
105.47
123.09
135.19
136.96
123.60
95.95
59.99
25.43
1.90
-5.11
3.11
19.50
35.16
44.09
46.15
45.60
48.36
56.57
68.34
78.67
82.09
75.29
58.38
34.97
9.97
-12.51
-30.40
-43.86
-54.73
-65.08
-75.78
-85.69
-91.78
-91.46
-84.28
-72.97
-62.52
-58.30
-63.61
-78.53
-99.82
-122.02
-140.46
-152.14
-155.84
-150.77
-136.10
-111.31
-77.25
-36.32
8.87
55.30
100.30
141.31
175.46
199.26
209.53
204.85
183.14
149.16
111.54
78.99
56.27
43.28
36.96
34.38
34.65
38.33
46.28
56.30
63.73
62.79
49.56
24.06
-8.92
-40.30
-59.31
-56.74
-30.67
12.05
57.62
90.91
101.73
88.74
58.92
23.19
-8.41
-32.05
-50.47
-70.40
-98.26
-137.10
-186.28
-242.70
-302.24
-352.72
-381.79
-380.00
-345.32
-284.72
-210.86
-137.09
-73.08
-23.01
13.72
38.80
53.62
58.81
55.31
45.61
33.63
23.65
18.62
19.20
22.88
25.81
24.48
17.51
6.20
-6.51
-17.27
-23.68
-24.84
-22.00
-17.55
-13.88
-12.57
-13.48
-15.36
-16.55
-15.69
-11.99
-5.85
1.57
8.77
14.49
18.22
20.20
21.44
23.24
27.09
33.75
43.09
54.03
64.94
74.29
80.96
84.56
85.45
84.78
83.76
83.62
85.64
90.69
98.73
108.36
117.25
120.53
115.13
100.16
77.22
49.96
22.82
-0.08
-15.85
-22.74
-20.09
-8.04
11.80
36.19
60.61
80.28
91.55
92.90
85.12
70.70
53.32
37.17
26.26
23.46
29.06
39.82
48.99
48.58
33.17
3.17
-34.70
-70.24
-94.46
-103.73
-100.71
-91.91
-83.74
-79.50
-78.92
-79.99
-81.28
-82.76
-84.89
-87.34
-88.26
-85.02
-75.73
-60.36
-40.88
-20.37
-1.83
12.73
22.73
28.71
31.92
33.71
35.04
36.25
37.10
37.14
36.19
34.54
33.09
32.85
34.59
38.37
43.38
48.09
50.75
50.10
45.73
38.30
29.17
19.89
11.62
4.82
-0.71
-5.55
-10.33
-15.49
-21.22
-27.47
-33.98
-40.27
-45.76
-49.86
-52.06
-52.00
-49.60
-44.98
-38.64
-31.36
-24.09
-17.65
-12.19
-7.18
-1.36
6.59
17.54
31.30
46.51
61.06
72.78
80.07
82.28
79.75
73.59
65.39
56.83
49.40
44.00
40.57
37.92
34.03
26.81
15.13
-0.44
-17.85
-34.24
-47.17
-55.39
-58.98
-58.88
-56.27
-52.16
-47.38
-42.73
-38.96
-36.45
-35.04
-33.85
-31.73
-27.90
-22.38
-15.99
-9.87
-4.98
-1.73
0.00
0.59
0.42
-0.25
-1.26
-2.47
-3.78
-5.16
-6.66
-8.24
-9.68
-10.53
-10.31
-8.80
-6.26
-3.45
-1.28
-0.44
-1.08
-2.83
-5.04
-7.22
-9.18
-11.04
-12.97
-14.92
-16.54
-17.33
-16.88
-15.04
-12.06
-8.44
-4.71
-1.19
2.04
5.11
8.16
11.25
14.32
17.24
19.91
22.19
23.97
25.12
25.50
25.03
23.74
21.73
19.11
15.99
12.42
8.49
4.33
0.08
-4.17
-8.49
-13.10
-18.33
-24.34
-31.05
-38.07
-44.82
-50.71
-55.35
-58.67
-60.90
-62.44
-63.70
-64.95
-66.23
-67.39
-68.21
-68.47
-68.00
-66.68
-64.35
-60.95
-56.49
-51.14
-45.17
-38.87
-32.41
-25.81
-19.05
-12.19
-5.47
0.68
5.84
9.81
12.73
15.05
17.38
20.24
23.99
28.78
34.71
41.83
50.12
59.35
68.99
78.32
86.56
93.21
98.27
102.23
105.89
109.92
114.39
118.61
121.27
120.87
116.34
107.46
94.92
79.99
63.97
47.77
31.70
15.67
-0.51
-16.83
-32.90
-48.06
-61.50
-72.47
-80.39
-85.05
-86.71
-86.13
-84.39
-82.51
-81.06
-79.95
-78.55
-76.19
-72.63
-68.45
-64.88
-63.38
-64.83
-69.02
-74.38
-78.19
-77.42
-69.61
-53.79
-30.84
-3.43
24.46
48.49
64.87
71.37
68.21
58.54
47.83
42.37
46.87
62.30
85.39
109.80
128.91
138.58
138.50
131.46
121.11
109.69
96.97
81.26
61.39
38.39
15.75
-2.05
-11.82
-13.46
-9.98
-6.12
-6.04
-11.50
-21.39
-32.75
-42.71
-50.09
-55.77
-61.94
-70.59
-82.28
-95.86
-109.01
-119.26
-125.07
-126.27
-123.90
-119.61
-115.02
-111.07
-107.94
-105.16
-102.04
-98.18
-93.66
-88.95
-84.59
-80.77
-77.11
-72.78
-66.84
-58.63
-48.04
-35.50
-21.74
-7.59
6.10
18.48
28.60
35.62
39.32
40.70
42.30
47.92
61.34
84.48
115.88
150.38
180.54
199.41
203.13
192.33
171.31
145.96
121.48
101.14
86.32
77.17
72.98
71.82
70.16
63.34
47.46
21.63
-10.48
-41.45
-63.12
-70.14
-62.31
-44.19
-22.64
-3.75
9.23
15.97
17.67
15.49
9.72
0.16
-12.78
-27.28
-40.15
-47.97
-48.58
-42.09
-30.87
-18.50
-8.24
-1.69
1.44
2.89
4.61
7.63
11.60
15.09
16.73
16.08
13.92
11.75
10.74
11.20
12.58
14.29
16.51
20.43
27.72
39.47
55.13
72.42
87.92
98.34
101.51
96.95
85.62
69.50
51.23
33.87
20.32
12.45
10.10
10.88
10.83
6.14
-4.93
-21.15
-38.71
-52.85
-59.79
-58.00
-48.50
-34.03
-18.09
-4.02
5.45
8.49
4.45
-5.89
-20.24
-35.28
-47.58
-54.51
-55.02
-49.70
-40.50
-30.06
-21.06
-15.58
-14.47
-16.98
-20.87
-23.14
-21.11
-13.54
-1.25
13.11
26.15
35.18
39.41
40.25
40.59
43.38
50.00
59.62
69.58
76.65
78.41
74.17
64.98
53.16
41.45
32.37
27.93
29.51
37.50
50.82
66.93
82.33
93.70
99.02
97.84
91.02
79.74
64.59
45.47
22.33
-3.96
-31.14
-56.15
-76.52
-90.77
-98.45
-99.97
-96.15
-88.29
-78.35
-68.94
-63.01
-63.69
-72.32
-87.43
-105.39
-121.62
-132.06
-134.18
-126.72
-109.74
-85.35
-56.49
-26.15
1.99
23.93
35.86
35.31
22.83
2.06
-22.05
-43.23
-54.96
-53.21
-37.33
-9.87
20.64
45.37
65.75
83.30
95.16
99.62
95.48
83.01
64.61
44.80
29.42
23.21
26.59
36.74
49.47
59.89
64.05
59.74
46.76
27.11
4.09
-19.46
-40.67
-56.65
-65.64
-67.48
-63.46
-55.81
-46.64
-37.62
-30.45
-26.15
-24.75
-25.69
-27.92
-30.05
-30.69
-28.79
-24.24
-18.34
-13.08
-10.05
-9.85
-11.76
-14.25
-15.74
-15.25
-12.79
-9.06
-4.81
-0.31
4.55
9.99
15.80
21.14
24.67
24.73
20.08
10.66
-1.64
-13.15
-19.50
-17.70
-8.04
5.50
16.26
17.35
4.17
-24.14
-64.71
-111.80
-158.10
-195.89
-217.81
-218.49
-196.09
-153.30
-97.16
-37.34
16.70
58.25
84.68
97.65
100.84
98.18
92.69
86.43
81.01
78.10
79.36
86.01
98.88
117.02
137.67
157.00
171.38
178.69
178.97
174.15
162.62
144.41
120.45
92.51
62.74
33.22
5.76
-18.03
-36.98
-50.63
-58.94
-63.01
-64.48
-64.93
-65.31
-65.83
-66.16
-65.95
-65.06
-63.11
-60.10
-56.35
-52.50
-49.24
-46.94
-45.29
-43.37
-40.06
-34.41
-26.60
-18.12
-11.23
-7.94
-8.97
-13.33
-18.76
-22.85
-23.94
-21.88
-17.87
-13.67
-10.50
-8.62
-7.39
-5.98
-3.97
-1.70
0.09
0.83
0.62
0.26
0.86
3.14
7.04
11.71
15.89
18.54
19.26
18.34
16.57
14.78
13.14
11.42
9.09
5.74
1.41
-3.29
-7.49
-10.46
-11.94
-12.26
-12.09
-12.03
-12.47
-13.51
-15.20
-17.73
-21.45
-26.60
-33.02
-39.89
-45.92
-49.69
-49.94
-45.77
-36.73
-22.85
-4.78
15.80
36.20
53.19
63.70
65.78
59.37
46.31
29.65
13.01
-0.68
-9.31
-11.80
-8.19
0.57
12.67
25.80
37.37
45.43
48.54
46.34
39.46
29.11
17.06
5.38
-3.86
-9.60
-11.69
-11.68
-12.00
-15.21
-23.56
-38.12
-56.66
-76.46
-95.36
-107.40
-108.59
-98.06
-78.82
-56.89
-38.04
-29.30
-29.44
-34.86
-40.62
-42.51
-37.76
-22.48
3.42
37.53
75.87
114.46
149.35
177.79
197.65
207.78
207.95
198.33
180.06
154.78
124.66
91.52
57.52
24.96
-3.94
-27.70
-46.76
-63.08
-79.56
-98.49
-120.82
-145.40
-169.58
-190.40
-205.70
-214.97
-218.70
-217.58
-211.57
-199.96
-181.61
-155.84
-123.05
-85.00
-44.59
-4.93
31.33
62.55
87.88
107.12
120.38
128.03
130.68
129.22
124.86
118.90
112.45
106.11
99.84
93.06
84.95
74.84
62.60
48.69
33.92
19.08
4.68
-9.08
-22.19
-34.65
-46.51
-57.90
-69.05
-80.12
-90.84
-100.28
-107.07
-110.06
-109.09
-105.29
-100.63
-96.86
-94.52
-92.69
-89.71
-84.30
-76.46
-67.47
-58.98
-51.97
-45.95
-39.38
-30.58
-18.90
-5.09
9.01
21.44
31.04
37.79
42.56
46.45
50.20
53.99
57.56
60.60
63.06
65.21
67.44
69.92
72.37
73.98
73.71
70.68
64.57
55.76
45.20
34.00
23.14
13.26
4.71
-2.30
-7.67
-11.41
-13.79
-15.29
-16.42
-17.47
-18.31
-18.55
-17.76
-15.82
-12.90
-9.30
-5.29
-1.04
3.08
6.26
7.41
5.66
1.13
-4.80
-9.94
-12.29
-10.94
-6.46
-0.35
5.86
11.34
15.98
19.98
23.31
25.59
26.50
26.35
26.31
28.05
32.97
41.48
52.63
64.36
74.16
79.88
80.20
75.00
65.20
52.48
38.83
26.17
15.84
8.27
2.88
-1.84
-7.74
-16.22
-27.52
-40.42
-52.69
-61.99
-66.72
-66.55
-62.36
-55.67
-47.95
-40.13
-32.58
-25.37
-18.54
-12.27
-6.68
-1.90
1.94
4.72
6.40
7.02
6.68
5.46
3.44
0.88
-2.33
-6.61
-12.33
-19.35
-26.83
-33.59
-38.65
-41.50
-41.51
-39.03
-35.50
-33.06
-33.55
-37.41
-43.27
-47.93
-47.15
-36.00
-12.27
22.20
62.15
101.34
135.03
160.71
177.98
187.81
193.22
196.35
197.69
196.36
191.04
180.80
164.58
141.66
103.49
50.20
-9.11
-61.37
-97.89
-117.89
-125.32
-125.71
-123.80
-122.79
-122.98
-123.92
-124.70
-122.96
-115.16
-98.31
-71.64
-38.18
-3.85
26.14
48.08
60.48
64.66
60.01
51.50
43.18
36.16
28.91
19.47
7.27
-9.56
-31.15
-55.57
-78.72
-96.90
-107.58
-109.88
-104.05
-91.69
-75.52
-58.22
-42.01
-27.50
-15.30
-4.89
5.13
16.12
28.09
39.12
46.54
48.04
43.13
32.91
19.80
6.67
-3.96
-10.24
-11.09
-5.87
5.28
21.24
39.51
56.84
70.11
77.27
77.85
72.75
63.79
52.92
41.89
31.77
23.13
16.19
11.00
7.42
5.11
3.51
1.92
-0.27
-3.57
-8.29
-14.39
-21.12
-27.13
-30.77
-30.90
-27.66
-22.68
-18.97
-19.98
-28.24
-42.86
-59.77
-72.67
-76.88
-72.12
-61.63
-49.58
-38.85
-30.20
-22.88
-15.84
-8.68
-2.05
2.99
5.77
6.30
5.18
3.36
1.85
1.33
2.21
4.18
6.56
8.60
9.63
9.24
7.45
4.80
2.13
0.55
0.50
1.85
3.84
5.41
5.54
3.45
-1.50
-10.08
-22.18
-36.75
-51.04
-60.80
-61.70
-51.37
-31.06
-5.14
18.76
34.88
41.02
38.96
32.74
26.14
21.04
17.18
13.46
9.24
5.31
3.02
3.23
5.59
8.61
10.54
10.04
7.10
2.79
-1.08
-3.01
-2.47
-0.10
2.63
4.18
3.62
1.09
-2.35
-5.09
-5.87
-4.28
-0.90
3.11
6.61
8.99
10.46
11.89
14.32
18.61
25.09
33.53
43.01
51.94
58.15
59.36
53.98
41.98
25.26
7.22
-8.41
-18.91
-23.43
-22.97
-19.54
-15.11
-10.84
-7.14
-3.99
-1.49
0.03
0.23
-0.92
-3.02
-5.31
-7.00
-7.55
-6.84
-5.14
-3.02
-1.14
-0.06
-0.07
-1.01
-2.34
-3.39
-3.58
-2.70
-0.95
1.05
2.67
3.51
3.58
3.25
2.94
2.97
3.34
3.79
3.92
3.43
2.31
0.84
-0.55
-1.75
-2.89
-4.41
-6.88
-10.68
-15.87
-22.11
-28.86
-34.55
-38.23
-39.46
-38.41
-35.60
-31.71
-27.22
-22.19
-16.43
-9.62
-1.79
6.67
15.05
22.57
28.62
32.95
35.69
37.13
37.61
37.18
35.84
33.63
30.69
27.33
23.88
20.58
17.48
14.46
11.32
7.96
4.56
1.56
-0.55
-1.44
-1.15
-0.06
1.26
2.31
2.86
2.98
2.90
2.77
2.59
2.23
1.59
0.71
-0.21
-0.97
-1.44
-1.64
-1.70
-1.78
-1.92
-2.16
-2.45
-2.72
-2.82
-2.60
-1.94
-0.87
0.32
1.24
1.43
0.71
-0.80
-2.76
-4.73
-6.37
-7.49
-8.12
-8.37
-8.44
-8.53
-8.80
-9.32
-9.97
-10.51
-10.65
-10.21
-9.16
-7.62
-5.82
-3.96
-2.19
-0.65
0.59
1.45
1.89
1.97
1.79
1.52
1.26
1.07
0.96
0.91
0.91
0.97
1.12
1.38
1.76
2.20
2.61
2.89
3.00
2.98
2.91
2.90
2.98
3.06
2.99
2.56
1.61
0.19
-1.50
-3.10
-4.25
-4.74
-4.61
-4.18
-3.86
-4.03
-4.82
-6.08
-7.47
-8.61
-9.23
-9.23
-8.68
-7.71
-6.42
-4.91
-3.27
-1.64
-0.17
0.94
1.62
1.85
1.74
1.45
1.09
0.77
0.53
0.39
0.36
0.43
0.60
0.82
1.06
1.27
1.41
1.44
1.30
0.95
0.36
-0.44
-1.36
-2.26
-3.02
-3.57
-3.93
-4.22
-4.60
-5.23
-6.22
-7.55
-9.09
-10.62
-11.90
-12.75
-13.16
-13.27
-13.31
-13.47
-13.80
-14.09
-14.02
-13.27
-11.68
-9.40
-6.77
-4.23
-2.11
-0.57
0.50
1.34
2.22
3.32
4.70
6.28
7.87
9.18
9.91
9.84
8.95
7.42
5.65
4.06
2.93
2.33
2.12
2.12
2.21
2.38
2.63
2.91
3.04
2.74
1.89
0.55
-1.00
-2.36
-3.26
-3.64
-3.69
-3.72
-3.96
-4.49
-5.20
-5.94
-6.58
-7.16
-7.80
-8.64
-9.67
-10.73
-11.55
-11.84
-11.44
-10.32
-8.62
-6.51
-4.18
-1.79
0.49
2.52
4.17
5.39
6.20
6.70
7.06
7.39
7.76
8.16
8.56
8.90
9.12
9.19
9.07
8.80
8.45
8.15
7.97
7.89
7.77
7.41
6.69
5.70
4.72
4.12
4.15
4.82
5.85
6.76
7.15
6.83
5.91
4.71
3.59
2.76
2.27
1.98
1.71
1.35
0.84
0.19
-0.63
-1.70
-3.11
-4.84
-6.70
-8.33
-9.28
-9.18
-7.88
-5.51
-2.44
0.82
3.73
5.89
7.06
7.30
6.85
6.13
5.56
5.41
5.72
6.29
6.78
6.87
6.38
5.41
4.24
3.19
2.47
2.09
1.90
1.71
1.43
1.11
0.89
0.90
1.17
1.62
2.05
2.23
1.98
1.19
-0.17
-2.01
-4.10
-6.12
-7.76
-8.83
-9.39
-9.75
-10.34
-11.56
-13.57
-16.23
-19.08
-21.50
-22.93
-23.02
-21.77
-19.50
-16.72
-13.97
-11.63
-9.87
-8.65
-7.83
-7.28
-6.92
-6.74
-6.71
-6.76
-6.79
-6.78
-6.76
-6.86
-7.24
-7.93
-8.84
-9.65
-9.99
-9.54
-8.21
-6.12
-3.64
-1.20
0.82
2.21
2.98
3.28
3.35
3.37
3.48
3.71
4.01
4.28
4.41
4.28
3.83
3.07
1.98
0.58
-1.15
-3.21
-5.46
-7.62
-9.23
-9.84
-9.23
-7.54
-5.28
-3.14
-1.62
-0.90
-0.66
-0.37
0.52
2.21
4.47
6.72
8.24
8.50
7.26
4.70
1.23
-2.52
-5.86
-8.16
-9.02
-8.44
-6.98
-5.58
-5.33
-6.91
-10.24
-14.39
-17.93
-19.58
-18.73
-15.73
-11.58
-7.49
-4.36
-2.54
-1.92
-2.19
-3.08
-4.46
-6.32
-8.59
-11.18
-13.96
-16.79
-19.60
-22.34
-24.98
-27.54
-29.98
-32.19
-33.98
-35.01
-34.94
-33.51
-30.72
-26.87
-22.49
-18.08
-13.98
-10.26
-6.87
-3.70
-0.59
2.59
5.94
9.56
13.57
18.02
22.73
27.32
31.23
34.08
35.60
35.56
33.84
30.53
25.98
20.71
15.23
9.82
4.70
-0.13
-5.10
-10.68
-17.08
-23.96
-30.72
-36.51
-40.50
-41.42
-38.05
-29.93
-17.66
-3.02
11.59
23.56
31.10
31.00
22.07
6.81
-9.54
-22.22
-29.65
-31.73
-30.86
-28.99
-27.28
-25.51
-22.44
-18.19
-12.25
-4.14
6.84
20.62
36.27
51.76
65.06
74.65
79.77
80.67
78.30
74.61
71.12
68.45
65.97
62.71
58.03
51.92
45.26
39.59
37.84
42.24
53.03
67.53
81.16
89.44
89.60
81.65
68.21
54.78
46.43
45.97
52.56
63.06
74.27
84.07
91.41
87.53
67.28
32.58
-7.34
-43.58
-72.22
-93.62
-110.15
-124.19
-136.54
-144.33
-142.97
-128.91
-101.18
-62.84
-19.78
20.98
52.98
72.09
78.39
68.76
48.70
26.01
6.86
-5.92
-12.43
-14.61
-14.46
-12.47
-8.38
-1.51
6.45
12.43
12.67
5.63
-7.25
-22.18
-34.31
-40.24
-38.74
-32.24
-25.01
-20.77
-20.98
-24.82
-30.16
-34.81
-37.68
-37.91
-36.38
-34.58
-33.70
-33.93
-34.66
-35.00
-34.33
-32.64
-30.22
-27.89
-26.21
-25.12
-23.86
-21.37
-16.85
-10.10
-1.60
7.73
16.69
24.16
29.38
32.05
32.31
30.59
27.53
23.79
19.94
16.30
12.97
9.94
7.17
4.74
2.80
1.53
1.05
1.26
1.85
2.39
2.52
2.05
1.03
-0.30
-1.64
-2.80
-3.74
-4.65
-5.79
-7.34
-9.32
-11.48
-13.37
-14.54
-14.69
-13.83
-12.26
-10.44
-8.71
-7.14
-5.51
-3.48
-0.81
2.41
5.80
8.88
11.25
12.78
13.59
13.92
13.92
13.55
12.58
10.72
7.82
3.92
-0.69
-5.62
-10.46
-14.88
-18.75
-22.01
-24.67
-26.71
-28.07
-28.63
-28.27
-26.91
-24.56
-21.33
-17.39
-12.94
-8.12
-3.02
2.29
7.75
13.16
18.27
22.79
26.53
29.48
31.72
33.34
34.32
34.45
33.46
31.18
27.68
23.27
18.41
13.49
8.75
4.24
-0.04
-4.05
-7.57
-10.34
-12.09
-12.72
-12.37
-11.37
-10.19
-9.27
-8.92
-9.21
-10.01
-11.06
-12.00
-12.54
-12.37
-11.20
-8.81
-5.16
-0.43
4.92
10.33
15.30
19.48
22.74
25.11
26.65
27.40
27.40
26.77
25.68
24.33
22.78
21.00
18.86
16.23
13.15
9.78
6.40
3.19
0.23
-2.53
-5.17
-7.72
-10.15
-12.30
-14.05
-15.33
-16.12
-16.45
-16.32
-15.68
-14.42
-12.49
-9.94
-6.99
-4.00
-1.32
0.86
2.57
3.98
5.29
6.54
7.52
7.93
7.51
6.24
4.42
2.57
1.15
0.42
0.23
0.21
-0.11
-1.03
-2.55
-4.34
-5.96
-6.97
-7.17
-6.62
-5.60
-4.45
-3.51
-2.96
-2.86
-3.13
-3.59
-3.96
-3.92
-3.14
-1.45
1.11
4.22
7.46
10.42
12.87
14.81
16.34
17.55
18.38
18.64
18.09
16.60
14.26
11.35
8.23
5.21
2.51
0.15
-2.01
-4.13
-6.33
-8.63
-10.91
-12.94
-14.51
-15.52
-16.10
-16.46
-16.85
-17.29
-17.62
-17.52
-16.68
-14.98
-12.54
-9.66
-6.63
-3.68
-0.89
1.76
4.26
6.61
8.72
10.52
11.93
12.92
13.45
